15147.33177	0.675	-0.0146875
15147.33227	0.675	-0.0120625
15147.33277	0.675	-0.0128125
15147.33327	0.675	-0.014875
15147.33377	0.675	-0.0145625
15147.33427	0.675	-0.01275
15147.33477	0.675	-0.011
15147.33527	0.675	-0.0099375
15147.33577	0.675	-0.0115625
15147.33627	0.675	-0.0205
15147.33677	0.3726563	-0.0216875
15147.33727	0.3726563	-0.019875
15147.33777	0.3726563	-0.02075
15147.33827	0.3726563	-0.01825
15147.33877	0.3726563	-0.02075
15147.33927	0.3726563	-0.0265
15147.33977	0.3726563	-0.0201875
15147.34027	0.3726563	-0.0178125
15147.34077	0.3726563	-0.0185
15147.34127	0.3726563	-0.0146875
15147.34177	0.2847656	-0.0133125
15147.34227	0.2847656	-0.013875
15147.34277	0.2847656	-0.0145
15147.34327	0.2847656	-0.0135625
15147.34377	0.2847656	-0.012375
15147.34427	0.2847656	-0.0100625
15147.34477	0.2847656	-0.0071875
15147.34527	0.2847656	-0.0128125
15147.34577	0.2847656	-0.0148125
15147.34627	0.2847656	-0.014
15147.34677	0.6609375	-0.0161875
15147.34727	0.6609375	-0.0084375
15147.34777	0.6609375	-0.005125
15147.34827	0.6609375	-0.01
15147.34877	0.6609375	-0.0064375
15147.34927	0.6609375	-0.0024375
15147.34977	0.6609375	-0.0029375
15147.35027	0.6609375	-0.0010625
15147.35077	0.6609375	0.0008125
15147.35127	0.6609375	0.0016875
15147.35177	0.5308594	0.0026875
15147.35227	0.5308594	0.005125
15147.35277	0.5308594	0.0014375
15147.35327	0.5308594	0.0006875
15147.35377	0.5308594	0.0071875
15147.35427	0.5308594	0.0105625
15147.35477	0.5308594	0.0126875
15147.35527	0.5308594	0.0155
15147.35577	0.5308594	0.011
15147.35627	0.5308594	0.0143125
15147.35677	0.2671875	0.0181875
15147.35727	0.2671875	0.0159375
15147.35777	0.2671875	0.01775
15147.35827	0.2671875	0.0220625
15147.35877	0.2671875	0.024875
15147.35927	0.2671875	0.0255
15147.35977	0.2671875	0.02425
15147.36027	0.2671875	0.0229375
15147.36077	0.2671875	0.025
15147.36127	0.2671875	0.032
15147.36177	0.5835938	0.029
15147.36227	0.5835938	0.0244375
15147.36277	0.5835938	0.0250625
15147.36327	0.5835938	0.023625
15147.36377	0.5835938	0.0268125
15147.36427	0.5835938	0.032875
15147.36477	0.5835938	0.028625
15147.36527	0.5835938	0.028125
15147.36577	0.5835938	0.03075
15147.36627	0.5835938	0.026875
15147.36677	0.6644531	0.0245
15147.36727	0.6644531	0.0240625
15147.36777	0.6644531	0.024375
15147.36827	0.6644531	0.0261875
15147.36877	0.6644531	0.0260625
15147.36927	0.6644531	0.0225625
15147.36977	0.6644531	0.015375
15147.37027	0.6644531	0.0198125
15147.37077	0.6644531	0.022125
15147.37127	0.6644531	0.021625
15147.37177	0.2496094	0.02375
15147.37227	0.2496094	0.0169375
15147.37277	0.2496094	0.0151875
15147.37327	0.2496094	0.02175
15147.37377	0.2496094	0.0214375
15147.37427	0.2496094	0.0199375
15147.37477	0.2496094	0.02225
15147.37527	0.2496094	0.0218125
15147.37577	0.2496094	0.0190625
15147.37627	0.2496094	0.0155625
15147.37677	0.3375	0.0148125
15147.37727	0.3375	0.0154375
15147.37777	0.3375	0.021
15147.37827	0.3375	0.021125
15147.37877	0.3375	0.0150625
15147.37927	0.3375	0.012625
15147.37977	0.3375	0.0105625
15147.38027	0.3375	0.0094375
15147.38077	0.3375	0.0185625
15147.38127	0.3375	0.0165625
15147.38177	0.6328125	0.0115625
15147.38227	0.6328125	0.0135
15147.38277	0.6328125	0.0125
15147.38327	0.6328125	0.0095625
15147.38377	0.6328125	0.00975
15147.38427	0.6328125	0.0103125
15147.38477	0.6328125	0.0110625
15147.38527	0.6328125	0.0089375
15147.38577	0.6328125	0.005375
15147.38627	0.6328125	-0.002875
15147.38677	0.3164063	0.0003125
15147.38727	0.3164063	0.005875
15147.38777	0.3164063	0.0065625
15147.38827	0.3164063	0.0066875
15147.38877	0.3164063	0.0043125
15147.38927	0.3164063	-0.002
15147.38977	0.3164063	0.0014375
15147.39027	0.3164063	0.0015625
15147.39077	0.3164063	-0.0026875
15147.39127	0.3164063	-0.002875
15147.39177	0.2003906	-0.0020625
15147.39227	0.2003906	-0.003
15147.39277	0.2003906	-0.00475
15147.39327	0.2003906	-0.00825
15147.39377	0.2003906	-0.0103125
15147.39427	0.2003906	-0.007875
15147.39477	0.2003906	-0.0025625
15147.39527	0.2003906	-0.006625
15147.39577	0.2003906	-0.008625
15147.39627	0.2003906	-0.0083125
15147.39677	0.590625	-0.0116875
15147.39727	0.590625	-0.0053125
15147.39777	0.590625	-0.00025
15147.39827	0.590625	-0.0045
15147.39877	0.590625	-0.0029375
15147.39927	0.590625	-0.00125
15147.39977	0.590625	-0.004375
15147.40027	0.590625	-0.0065
15147.40077	0.590625	-0.0055625
15147.40127	0.590625	-0.00275
15147.40177	0.5167969	-0.0009375
15147.40227	0.5167969	-0.000125
15147.40277	0.5167969	-0.006875
15147.40327	0.5167969	-0.0105625
15147.40377	0.5167969	-0.0080625
15147.40427	0.5167969	-0.00825
15147.40477	0.5167969	-0.0079375
15147.40527	0.5167969	-0.0043125
15147.40577	0.5167969	-0.0096875
15147.40627	0.5167969	-0.0064375
15147.40677	0.2707031	-0.0024375
15147.40727	0.2707031	-0.0065
15147.40777	0.2707031	-0.009125
15147.40827	0.2707031	-0.0073125
15147.40877	0.2707031	-0.00775
15147.40927	0.2707031	-0.009875
15147.40977	0.2707031	-0.0128125
15147.41027	0.2707031	-0.0145625
15147.41077	0.2707031	-0.014125
15147.41127	0.2707031	-0.0054375
15147.41177	0.5941406	-0.0048125
15147.41227	0.5941406	-0.007625
15147.41277	0.5941406	-0.0068125
15147.41327	0.5941406	-0.0090625
15147.41377	0.5941406	-0.006875
15147.41427	0.5941406	0.0006875
15147.41477	0.5941406	-0.0030625
15147.41527	0.5941406	-0.0058125
15147.41577	0.5941406	-0.004625
15147.41627	0.5941406	-0.0066875
15147.41677	0.6996094	-0.0078125
15147.41727	0.6996094	-0.007875
15147.41777	0.6996094	-0.0071875
15147.41827	0.6996094	-0.006
15147.41877	0.6996094	-0.0044375
15147.41927	0.6996094	-0.0055625
15147.41977	0.6996094	-0.0105
15147.42027	0.6996094	-0.00625
15147.42077	0.6996094	-0.0049375
15147.42127	0.6996094	-0.005625
15147.42177	0.3550781	-0.0015
15147.42227	0.3550781	-0.00525
15147.42277	0.3550781	-0.00775
15147.42327	0.3550781	-0.002125
15147.42377	0.3550781	-0.003375
15147.42427	0.3550781	-0.0045625
15147.42477	0.3550781	-0.001625
15147.42527	0.3550781	-0.0025625
15147.42577	0.3550781	-0.0045625
15147.42627	0.3550781	-0.0064375
15147.42677	0.4535156	-0.006125
15147.42727	0.4535156	-0.005875
15147.42777	0.4535156	-0.0008125
15147.42827	0.4535156	0.002125
15147.42877	0.4535156	-0.003125
15147.42927	0.4535156	-0.0049375
15147.42977	0.4535156	-0.0051875
15147.43027	0.4535156	-0.005625
15147.43077	0.4535156	0.00375
15147.43127	0.4535156	0.00275
15147.43177	0.7558594	-0.0019375
15147.43227	0.7558594	0.002125
15147.43277	0.7558594	0.0044375
15147.43327	0.7558594	0.003375
15147.43377	0.7558594	0.003875
15147.43427	0.7558594	0.0054375
15147.43477	0.7558594	0.0061875
15147.43527	0.7558594	0.0058125
15147.43577	0.7558594	0.00525
15147.43627	0.7558594	-0.0024375
15147.43677	0.4886719	-0.000375
15147.43727	0.4886719	0.0025
15147.43777	0.4886719	0.0020625
15147.43827	0.4886719	0.0055625
15147.43877	0.4886719	0.00725
15147.43927	0.4886719	0.0029375
15147.43977	0.4886719	0.0070625
15147.44027	0.4886719	0.00925
15147.44077	0.4886719	0.008625
15147.44127	0.4886719	0.011375
15147.44177	0.3796875	0.0121875
15147.44227	0.3796875	0.009875
15147.44277	0.3796875	0.0084375
15147.44327	0.3796875	0.0103125
15147.44377	0.3796875	0.011
15147.44427	0.3796875	0.01225
15147.44477	0.3796875	0.0156875
15147.44527	0.3796875	0.009
15147.44577	0.3796875	0.0058125
15147.44627	0.3796875	0.0050625
15147.44677	0.8085938	0.001
15147.44727	0.8085938	0.005625
15147.44777	0.8085938	0.0095
15147.44827	0.8085938	0.0053125
15147.44877	0.8085938	0.0061875
15147.44927	0.8085938	0.009375
15147.44977	0.8085938	0.0088125
15147.45027	0.8085938	0.010625
15147.45077	0.8085938	0.012
15147.45127	0.8085938	0.0133125
15147.45177	0.7242188	0.01225
15147.45227	0.7242188	0.0116875
15147.45277	0.7242188	0.008625
15147.45327	0.7242188	0.0090625
15147.45377	0.7242188	0.0165625
15147.45427	0.7242188	0.0185625
15147.45477	0.7242188	0.018375
15147.45527	0.7242188	0.0200625
15147.45577	0.7242188	0.012
15147.45627	0.7242188	0.0119375
15147.45677	0.4429688	0.01575
15147.45727	0.4429688	0.0119375
15147.45777	0.4429688	0.0101875
15147.45827	0.4429688	0.011625
15147.45877	0.4429688	0.0105
15147.45927	0.4429688	0.0083125
15147.45977	0.4429688	0.007875
15147.46027	0.4429688	0.008125
15147.46077	0.4429688	0.0085625
15147.46127	0.4429688	0.0160625
15147.46177	0.7839844	0.0171875
15147.46227	0.7839844	0.0145
15147.46277	0.7839844	0.0140625
15147.46327	0.7839844	0.0116875
15147.46377	0.7839844	0.0133125
15147.46427	0.7839844	0.021375
15147.46477	0.7839844	0.0175
15147.46527	0.7839844	0.0144375
15147.46577	0.7839844	0.016625
15147.46627	0.7839844	0.0154375
15147.46677	0.8824219	0.01375
15147.46727	0.8824219	0.0129375
15147.46777	0.8824219	0.0140625
15147.46827	0.8824219	0.01575
15147.46877	0.8824219	0.016625
15147.46927	0.8824219	0.013125
15147.46977	0.8824219	0.0055
15147.47027	0.8824219	0.0109375
15147.47077	0.8824219	0.0159375
15147.47127	0.8824219	0.0186875
15147.47177	0.4957031	0.019625
15147.47227	0.4957031	0.0101875
15147.47277	0.4957031	0.0043125
15147.47327	0.4957031	0.0098125
15147.47377	0.4957031	0.0096875
15147.47427	0.4957031	0.0075625
15147.47477	0.4957031	0.0078125
15147.47527	0.4957031	0.0075
15147.47577	0.4957031	0.008125
15147.47627	0.4957031	0.00925
15147.47677	0.5730469	0.010625
15147.47727	0.5730469	0.01225
15147.47777	0.5730469	0.0184375
15147.47827	0.5730469	0.020625
15147.47877	0.5730469	0.014375
15147.47927	0.5730469	0.01325
15147.47977	0.5730469	0.0131875
15147.48027	0.5730469	0.00975
15147.48077	0.5730469	0.01575
15147.48127	0.5730469	0.0141875
15147.48177	0.815625	0.0074375
15147.48227	0.815625	0.0103125
15147.48277	0.815625	0.013125
15147.48327	0.815625	0.012375
15147.48377	0.815625	0.01425
15147.48427	0.815625	0.0163125
15147.48477	0.815625	0.0165625
15147.48527	0.815625	0.017375
15147.48577	0.815625	0.0151875
15147.48627	0.815625	0.006
15147.48677	0.4957031	0.0054375
15147.48727	0.4957031	0.00925
15147.48777	0.4957031	0.0091875
15147.48827	0.4957031	0.0109375
15147.48877	0.4957031	0.0101875
15147.48927	0.4957031	0.0020625
15147.48977	0.4957031	0.0050625
15147.49027	0.4957031	0.00775
15147.49077	0.4957031	0.004625
15147.49127	0.4957031	0.0061875
15147.49177	0.365625	0.00825
15147.49227	0.365625	0.006375
15147.49277	0.365625	0.0018125
15147.49327	0.365625	-0.0024375
15147.49377	0.365625	-0.00325
15147.49427	0.365625	0.0006875
15147.49477	0.365625	0.0083125
15147.49527	0.365625	0.0045625
15147.49577	0.365625	0.00025
15147.49627	0.365625	-0.000125
15147.49677	0.7277344	-0.0033125
15147.49727	0.7277344	0.00175
15147.49777	0.7277344	0.0064375
15147.49827	0.7277344	0.00025
15147.49877	0.7277344	-0.000375
15147.49927	0.7277344	0.0015
15147.49977	0.7277344	-0.000875
15147.50027	0.7277344	-0.0024375
15147.50077	0.7277344	-0.0008125
15147.50127	0.7277344	0.003375
15147.50177	0.6152344	0.0065
15147.50227	0.6152344	0.0066875
15147.50277	0.6152344	0.0010625
15147.50327	0.6152344	-0.0038125
15147.50377	0.6152344	0.0023125
15147.50427	0.6152344	0.00625
15147.50477	0.6152344	0.0084375
15147.50527	0.6152344	0.0113125
15147.50577	0.6152344	0.0035
15147.50627	0.6152344	0.0049375
15147.50677	0.3164063	0.011625
15147.50727	0.3164063	0.011125
15147.50777	0.3164063	0.011375
15147.50827	0.3164063	0.0138125
15147.50877	0.3164063	0.014
15147.50927	0.3164063	0.01125
15147.50977	0.3164063	0.0066875
15147.51027	0.3164063	0.0040625
15147.51077	0.3164063	0.0033125
15147.51127	0.3164063	0.0100625
15147.51177	0.6222656	0.009875
15147.51227	0.6222656	0.0046875
15147.51277	0.6222656	0.004
15147.51327	0.6222656	0.002875
15147.51377	0.6222656	0.003
15147.51427	0.6222656	0.0094375
15147.51477	0.6222656	0.0053125
15147.51527	0.6222656	0.0023125
15147.51577	0.6222656	0.004625
15147.51627	0.6222656	0.004125
15147.51677	0.6714844	0.0010625
15147.51727	0.6714844	-0.003125
15147.51777	0.6714844	-0.006125
15147.51827	0.6714844	-0.0085625
15147.51877	0.6714844	-0.0106875
15147.51927	0.6714844	-0.0125
15147.51977	0.6714844	-0.018125
15147.52027	0.6714844	-0.0135
15147.52077	0.6714844	-0.0100625
15147.52127	0.6714844	-0.0103125
15147.52177	0.253125	-0.0078125
15147.52227	0.253125	-0.0104375
15147.52277	0.253125	-0.0130625
15147.52327	0.253125	-0.0046875
15147.52377	0.253125	-0.003
15147.52427	0.253125	-0.0063125
15147.52477	0.253125	-0.007
15147.52527	0.253125	-0.0080625
15147.52577	0.253125	-0.008625
15147.52627	0.253125	-0.0090625
15147.52677	0.309375	-0.00975
15147.52727	0.309375	-0.010375
15147.52777	0.309375	-0.0048125
15147.52827	0.309375	-0.001125
15147.52877	0.309375	-0.0064375
15147.52927	0.309375	-0.0074375
15147.52977	0.309375	-0.0075625
15147.53027	0.309375	-0.0109375
15147.53077	0.309375	-0.00475
15147.53127	0.309375	-0.0055
15147.53177	0.5273438	-0.0109375
15147.53227	0.5273438	-0.0083125
15147.53277	0.5273438	-0.0045625
15147.53327	0.5273438	-0.005125
15147.53377	0.5273438	-0.002875
15147.53427	0.5273438	-0.00025
15147.53477	0.5273438	0.000875
15147.53527	0.5273438	0.0004375
15147.53577	0.5273438	6.25e-05
15147.53627	0.5273438	-0.0081875
15147.53677	0.253125	-0.0085
15147.53727	0.253125	-0.0031875
15147.53777	0.253125	-0.0013125
15147.53827	0.253125	0.00325
15147.53877	0.253125	0.00675
15147.53927	0.253125	0.0021875
15147.53977	0.253125	0.00725
15147.54027	0.253125	0.01125
15147.54077	0.253125	0.009875
15147.54127	0.253125	0.01125
15147.54177	0.1230469	0.0123125
15147.54227	0.1230469	0.010625
15147.54277	0.1230469	0.005625
15147.54327	0.1230469	-0.000875
15147.54377	0.1230469	-0.008125
15147.54427	0.1230469	-0.01175
15147.54477	0.1230469	-0.00875
15147.54527	0.1230469	-0.0135625
15147.54577	0.1230469	-0.0160625
15147.54627	0.1230469	-0.014375
15147.54677	0.4992188	-0.0153125
15147.54727	0.4992188	-0.0090625
15147.54777	0.4992188	-0.0033125
15147.54827	0.4992188	-0.0085625
15147.54877	0.4992188	-0.0089375
15147.54927	0.4992188	-0.005625
15147.54977	0.4992188	-0.005375
15147.55027	0.4992188	-0.004
15147.55077	0.4992188	-0.0024375
15147.55127	0.4992188	-0.000625
15147.55177	0.45	0.0024375
15147.55227	0.45	0.00225
15147.55277	0.45	-0.0040625
15147.55327	0.45	-0.01125
15147.55377	0.45	-0.0075
15147.55427	0.45	-0.005625
15147.55477	0.45	-0.0050625
15147.55527	0.45	-0.002125
15147.55577	0.45	-0.0090625
15147.55627	0.45	-0.0105
15147.55677	0.1652344	-0.00675
15147.55727	0.1652344	-0.0095625
15147.55777	0.1652344	-0.0108125
15147.55827	0.1652344	-0.0074375
15147.55877	0.1652344	-0.0063125
15147.55927	0.1652344	-0.0060625
15147.55977	0.1652344	-0.00675
15147.56027	0.1652344	-0.0068125
15147.56077	0.1652344	-0.0084375
15147.56127	0.1652344	-0.004125
15147.56177	0.4851563	-0.0043125
15147.56227	0.4851563	-0.007375
15147.56277	0.4851563	-0.005625
15147.56327	0.4851563	-0.0051875
15147.56377	0.4851563	-0.0048125
15147.56427	0.4851563	0.0033125
15147.56477	0.4851563	-0.0004375
15147.56527	0.4851563	-0.0053125
15147.56577	0.4851563	-0.002875
15147.56627	0.4851563	-0.0028125
15147.56677	0.6152344	-0.00325
15147.56727	0.6152344	-0.0026875
15147.56777	0.6152344	-0.0024375
15147.56827	0.6152344	-0.0020625
15147.56877	0.6152344	-0.001125
15147.56927	0.6152344	-0.0038125
15147.56977	0.6152344	-0.012625
15147.57027	0.6152344	-0.0110625
15147.57077	0.6152344	-0.007125
15147.57127	0.6152344	-0.007
15147.57177	0.2425781	-0.0068125
15147.57227	0.2425781	-0.012375
15147.57277	0.2425781	-0.0185625
15147.57327	0.2425781	-0.01425
15147.57377	0.2425781	-0.0124375
15147.57427	0.2425781	-0.0136875
15147.57477	0.2425781	-0.011625
15147.57527	0.2425781	-0.009875
15147.57577	0.2425781	-0.0089375
15147.57627	0.2425781	-0.0099375
15147.57677	0.3621094	-0.01075
15147.57727	0.3621094	-0.0103125
15147.57777	0.3621094	-0.00575
15147.57827	0.3621094	-0.00225
15147.57877	0.3621094	-0.0058125
15147.57927	0.3621094	-0.009375
15147.57977	0.3621094	-0.012125
15147.58027	0.3621094	-0.0143125
15147.58077	0.3621094	-0.0055
15147.58127	0.3621094	-0.0026875
15147.58177	0.6328125	-0.0075625
15147.58227	0.6328125	-0.0055
15147.58277	0.6328125	-0.003875
15147.58327	0.6328125	-0.006875
15147.58377	0.6328125	-0.0064375
15147.58427	0.6328125	-0.0063125
15147.58477	0.6328125	-0.0073125
15147.58527	0.6328125	-0.0076875
15147.58577	0.6328125	-0.008
15147.58627	0.6328125	-0.0139375
15147.58677	0.3550781	-0.012375
15147.58727	0.3550781	-0.0051875
15147.58777	0.3550781	-0.0045
15147.58827	0.3550781	-0.005875
15147.58877	0.3550781	-0.0085
15147.58927	0.3550781	-0.0165
15147.58977	0.3550781	-0.011875
15147.59027	0.3550781	-0.0075
15147.59077	0.3550781	-0.0091875
15147.59127	0.3550781	-0.006875
15147.59177	0.2320313	-0.004875
15147.59227	0.2320313	-0.0045625
15147.59277	0.2320313	-0.004125
15147.59327	0.2320313	-0.0025625
15147.59377	0.2320313	-0.0021875
15147.59427	0.2320313	0.0004375
15147.59477	0.2320313	0.0081875
15147.59527	0.2320313	0.0069375
15147.59577	0.2320313	0.0065625
15147.59627	0.2320313	0.008
15147.59677	0.6152344	0.0045
15147.59727	0.6152344	0.0091875
15147.59777	0.6152344	0.01525
15147.59827	0.6152344	0.00925
15147.59877	0.6152344	0.0086875
15147.59927	0.6152344	0.01125
15147.59977	0.6152344	0.00825
15147.60027	0.6152344	0.0063125
15147.60077	0.6152344	0.0045
15147.60127	0.6152344	0.004375
15147.60177	0.5765625	0.0034375
15147.60227	0.5765625	0.000375
15147.60277	0.5765625	-0.0075
15147.60327	0.5765625	-0.014
15147.60377	0.5765625	-0.0113125
15147.60427	0.5765625	-0.0113125
15147.60477	0.5765625	-0.0120625
15147.60527	0.5765625	-0.0081875
15147.60577	0.5765625	-0.0118125
15147.60627	0.5765625	-0.01275
15147.60677	0.2742188	-0.0078125
15147.60727	0.2742188	-0.008375
15147.60777	0.2742188	-0.0078125
15147.60827	0.2742188	-0.004375
15147.60877	0.2742188	-0.005
15147.60927	0.2742188	-0.007875
15147.60977	0.2742188	-0.0103125
15147.61027	0.2742188	-0.0115625
15147.61077	0.2742188	-0.0114375
15147.61127	0.2742188	-0.00425
15147.61177	0.5449219	-0.0033125
15147.61227	0.5449219	-0.0093125
15147.61277	0.5449219	-0.0108125
15147.61327	0.5449219	-0.0129375
15147.61377	0.5449219	-0.012375
15147.61427	0.5449219	-0.0003125
15147.61477	0.5449219	-0.00325
15147.61527	0.5449219	-0.008375
15147.61577	0.5449219	-0.0031875
15147.61627	0.5449219	-0.001875
15147.61677	0.6679688	-0.00425
15147.61727	0.6679688	-0.0050625
15147.61777	0.6679688	-0.003625
15147.61827	0.6679688	0.0001875
15147.61877	0.6679688	0.0033125
15147.61927	0.6679688	0.0010625
15147.61977	0.6679688	-0.010125
15147.62027	0.6679688	-0.0065625
15147.62077	0.6679688	-0.0015625
15147.62127	0.6679688	-0.0011875
15147.62177	0.2601563	0.00325
15147.62227	0.2601563	0.0018125
15147.62277	0.2601563	-0.0033125
15147.62327	0.2601563	0.004375
15147.62377	0.2601563	0.0045625
15147.62427	0.2601563	0.002125
15147.62477	0.2601563	0.0060625
15147.62527	0.2601563	0.008125
15147.62577	0.2601563	0.0079375
15147.62627	0.2601563	0.005
15147.62677	0.2847656	0.00125
15147.62727	0.2847656	-0.002
15147.62777	0.2847656	-0.000125
15147.62827	0.2847656	0.0029375
15147.62877	0.2847656	-0.008375
15147.62927	0.2847656	-0.0136875
15147.62977	0.2847656	-0.0129375
15147.63027	0.2847656	-0.0146875
15147.63077	0.2847656	-0.0041875
15147.63127	0.2847656	0.0004375
15147.63177	0.5835938	-0.005875
15147.63227	0.5835938	-0.0036875
15147.63277	0.5835938	-0.0014375
15147.63327	0.5835938	-0.00375
15147.63377	0.5835938	-0.0043125
15147.63427	0.5835938	-0.003125
15147.63477	0.5835938	-0.000625
15147.63527	0.5835938	0.0021875
15147.63577	0.5835938	0.0025625
15147.63627	0.5835938	-0.00775
15147.63677	0.2707031	-0.0098125
15147.63727	0.2707031	-0.002125
15147.63777	0.2707031	-0.0013125
15147.63827	0.2707031	6.25e-05
15147.63877	0.2707031	0.0005
15147.63927	0.2707031	-0.01
15147.63977	0.2707031	-0.0065
15147.64027	0.2707031	-0.00125
15147.64077	0.2707031	-0.0055625
15147.64127	0.2707031	-0.006
15147.64177	0.1582031	-0.003875
15147.64227	0.1582031	0.00925
15147.64277	0.1582031	0.0015
15147.64327	0.1582031	-0.0105625
15147.64377	0.1582031	-0.0145625
15147.64427	0.1582031	-0.0129375
15147.64477	0.1582031	-0.006
15147.64527	0.1582031	-0.0078125
15147.64577	0.1582031	-0.0096875
15147.64627	0.1582031	-0.008
15147.64677	0.5308594	-0.0100625
15147.64727	0.5308594	-0.006875
15147.64777	0.5308594	-0.0006875
15147.64827	0.5308594	-0.0034375
15147.64877	0.5308594	-0.0020625
15147.64927	0.5308594	0.0019375
15147.64977	0.5308594	0.00075
15147.65027	0.5308594	0.000125
15147.65077	0.5308594	0.002
15147.65127	0.5308594	0.004625
15147.65177	0.4113281	0.0060625
15147.65227	0.4113281	0.0086875
15147.65277	0.4113281	0.0051875
15147.65327	0.4113281	0.0005
15147.65377	0.4113281	0.004625
15147.65427	0.4113281	0.0066875
15147.65477	0.4113281	0.0079375
15147.65527	0.4113281	0.0141875
15147.65577	0.4113281	0.01075
15147.65627	0.4113281	0.00875
15147.65677	0.1195313	0.011125
15147.65727	0.1195313	0.008125
15147.65777	0.1195313	0.0078125
15147.65827	0.1195313	0.0118125
15147.65877	0.1195313	0.012
15147.65927	0.1195313	0.0099375
15147.65977	0.1195313	0.00525
15147.66027	0.1195313	-0.000125
15147.66077	0.1195313	-0.0035
15147.66127	0.1195313	-0.00025
15147.66177	0.3832031	-0.00175
15147.66227	0.3832031	-0.0086875
15147.66277	0.3832031	-0.0078125
15147.66327	0.3832031	-0.006125
15147.66377	0.3832031	-0.005625
15147.66427	0.3832031	0.0013125
15147.66477	0.3832031	-0.0035625
15147.66527	0.3832031	-0.0078125
15147.66577	0.3832031	-0.0035625
15147.66627	0.3832031	-0.0018125
15147.66677	0.5378906	-0.003375
15147.66727	0.5378906	-0.00275
15147.66777	0.5378906	-0.001625
15147.66827	0.5378906	-0.0004375
15147.66877	0.5378906	0.0018125
15147.66927	0.5378906	0.0013125
15147.66977	0.5378906	-0.0083125
15147.67027	0.5378906	-0.007875
15147.67077	0.5378906	-0.002125
15147.67127	0.5378906	-0.0003125
15147.67177	0.1476563	0.003875
15147.67227	0.1476563	0.0031875
15147.67277	0.1476563	-0.0025625
15147.67327	0.1476563	0.0026875
15147.67377	0.1476563	0.0053125
15147.67427	0.1476563	0.0034375
15147.67477	0.1476563	0.0050625
15147.67527	0.1476563	0.0055625
15147.67577	0.1476563	0.0038125
15147.67627	0.1476563	0.00175
15147.67677	0.1898438	-0.0016875
15147.67727	0.1898438	-0.003
15147.67777	0.1898438	0.00125
15147.67827	0.1898438	0.0065625
15147.67877	0.1898438	0.0031875
15147.67927	0.1898438	0.003875
15147.67977	0.1898438	0.0070625
15147.68027	0.1898438	0.0055
15147.68077	0.1898438	0.0123125
15147.68127	0.1898438	0.01225
15147.68177	0.4992188	0.0065625
15147.68227	0.4992188	0.0083125
15147.68277	0.4992188	0.010625
15147.68327	0.4992188	0.0085625
15147.68377	0.4992188	0.0065
15147.68427	0.4992188	0.005
15147.68477	0.4992188	0.005125
15147.68527	0.4992188	0.0051875
15147.68577	0.4992188	0.005125
15147.68627	0.4992188	-0.0026875
15147.68677	0.196875	-0.006625
15147.68727	0.196875	-0.0018125
15147.68777	0.196875	-0.000625
15147.68827	0.196875	0.0005
15147.68877	0.196875	0.0035
15147.68927	0.196875	-0.0024375
15147.68977	0.196875	-0.0015
15147.69027	0.196875	0.002
15147.69077	0.196875	0.00075
15147.69127	0.196875	0.002375
15147.69177	0.08085938	0.0050625
15147.69227	0.08085938	0.0043125
15147.69277	0.08085938	0.0046875
15147.69327	0.08085938	0.0053125
15147.69377	0.08085938	0.0059375
15147.69427	0.08085938	0.0065
15147.69477	0.08085938	0.011875
15147.69527	0.08085938	0.007375
15147.69577	0.08085938	0.002875
15147.69627	0.08085938	0.0041875
15147.69677	0.4851563	0.0055
15147.69727	0.4851563	0.01025
15147.69777	0.4851563	0.0168125
15147.69827	0.4851563	0.0115625
15147.69877	0.4851563	0.0095
15147.69927	0.4851563	0.0119375
15147.69977	0.4851563	0.009375
15147.70027	0.4851563	0.008125
15147.70077	0.4851563	0.00975
15147.70127	0.4851563	0.0120625
15147.70177	0.4078125	0.014375
15147.70227	0.4078125	0.01525
15147.70277	0.4078125	0.0098125
15147.70327	0.4078125	0.0011875
15147.70377	0.4078125	0.0048125
15147.70427	0.4078125	0.0075625
15147.70477	0.4078125	0.007875
15147.70527	0.4078125	0.010125
15147.70577	0.4078125	0.002375
15147.70627	0.4078125	-0.0023125
15147.70677	0.1617188	0.002625
15147.70727	0.1617188	0.002875
15147.70777	0.1617188	0.0020625
15147.70827	0.1617188	0.0051875
15147.70877	0.1617188	0.0048125
15147.70927	0.1617188	0.0040625
15147.70977	0.1617188	0.003875
15147.71027	0.1617188	0.00425
15147.71077	0.1617188	0.004875
15147.71127	0.1617188	0.0106875
15147.71177	0.4746094	0.0121875
15147.71227	0.4746094	0.0068125
15147.71277	0.4746094	0.0065625
15147.71327	0.4746094	0.0070625
15147.71377	0.4746094	0.0069375
15147.71427	0.4746094	0.0145
15147.71477	0.4746094	0.0125625
15147.71527	0.4746094	0.0078125
15147.71577	0.4746094	0.00975
15147.71627	0.4746094	0.0110625
15147.71677	0.6046875	0.00975
15147.71727	0.6046875	0.0090625
15147.71777	0.6046875	0.007375
15147.71827	0.6046875	0.0069375
15147.71877	0.6046875	0.008375
15147.71927	0.6046875	0.0091875
15147.71977	0.6046875	0.0025
15147.72027	0.6046875	0.0041875
15147.72077	0.6046875	0.008
15147.72127	0.6046875	0.006875
15147.72177	0.2496094	0.0088125
15147.72227	0.2496094	0.0083125
15147.72277	0.2496094	0.0046875
15147.72327	0.2496094	0.0104375
15147.72377	0.2496094	0.0123125
15147.72427	0.2496094	0.008125
15147.72477	0.2496094	0.008375
15147.72527	0.2496094	0.0106875
15147.72577	0.2496094	0.0115
15147.72627	0.2496094	0.0089375
15147.72677	0.3164063	0.005125
15147.72727	0.3164063	0.0034375
15147.72777	0.3164063	0.005125
15147.72827	0.3164063	0.009625
15147.72877	0.3164063	0.0051875
15147.72927	0.3164063	0.00225
15147.72977	0.3164063	0.000875
15147.73027	0.3164063	-0.005125
15147.73077	0.3164063	-0.0009375
15147.73127	0.3164063	0.0013125
15147.73177	0.6152344	-0.00325
15147.73227	0.6152344	-0.00025
15147.73277	0.6152344	0.0019375
15147.73327	0.6152344	0.000125
15147.73377	0.6152344	0
15147.73427	0.6152344	-0.000625
15147.73477	0.6152344	0.0005625
15147.73527	0.6152344	0.0010625
15147.73577	0.6152344	0.0006875
15147.73627	0.6152344	-0.006625
15147.73677	0.3480469	-0.008375
15147.73727	0.3480469	-0.002375
15147.73777	0.3480469	-0.0015
15147.73827	0.3480469	-0.00075
15147.73877	0.3480469	-6.25E-05
15147.73927	0.3480469	-0.0070625
15147.73977	0.3480469	-0.0053125
15147.74027	0.3480469	-0.001125
15147.74077	0.3480469	-0.0048125
15147.74127	0.3480469	-0.00525
15147.74177	0.2074219	-0.0019375
15147.74227	0.2074219	-0.0014375
15147.74277	0.2074219	-0.00175
15147.74327	0.2074219	-0.0030625
15147.74377	0.2074219	-0.0046875
15147.74427	0.2074219	-0.00675
15147.74477	0.2074219	-0.00175
15147.74527	0.2074219	-0.003625
15147.74577	0.2074219	-0.0075625
15147.74627	0.2074219	-0.0076875
15147.74677	0.5625	-0.0104375
15147.74727	0.5625	-0.0085625
15147.74777	0.5625	-0.002875
15147.74827	0.5625	-0.006875
15147.74877	0.5625	-0.0078125
15147.74927	0.5625	-0.006375
15147.74977	0.5625	-0.00825
15147.75027	0.5625	-0.0078125
15147.75077	0.5625	-0.0070625
15147.75127	0.5625	-0.005
15147.75177	0.4675781	-0.003375
15147.75227	0.4675781	-0.0025
15147.75277	0.4675781	-0.007125
15147.75327	0.4675781	-0.0138125
15147.75377	0.4675781	-0.0105625
15147.75427	0.4675781	-0.0074375
15147.75477	0.4675781	-0.0065625
15147.75527	0.4675781	-0.003125
15147.75577	0.4675781	-0.005875
15147.75627	0.4675781	-0.006625
15147.75677	0.1792969	-0.000625
15147.75727	0.1792969	-0.000625
15147.75777	0.1792969	-0.0018125
15147.75827	0.1792969	0.0025625
15147.75877	0.1792969	0.0045625
15147.75927	0.1792969	0.0048125
15147.75977	0.1792969	0.0036875
15147.76027	0.1792969	0.0031875
15147.76077	0.1792969	0.0035
15147.76127	0.1792969	0.007875
15147.76177	0.4464844	0.008625
15147.76227	0.4464844	0.004125
15147.76277	0.4464844	0.004375
15147.76327	0.4464844	0.0030625
15147.76377	0.4464844	-0.000875
15147.76427	0.4464844	0.0045
15147.76477	0.4464844	0.0035625
15147.76527	0.4464844	-0.00025
15147.76577	0.4464844	0.0038125
15147.76627	0.4464844	0.00475
15147.76677	0.5730469	0.001875
15147.76727	0.5730469	0.0013125
15147.76777	0.5730469	0.00125
15147.76827	0.5730469	0.003875
15147.76877	0.5730469	0.0043125
15147.76927	0.5730469	0.00275
15147.76977	0.5730469	-0.007125
15147.77027	0.5730469	-0.00675
15147.77077	0.5730469	-0.003125
15147.77127	0.5730469	-0.0035625
15147.77177	0.2003906	-0.003
15147.77227	0.2003906	-0.004875
15147.77277	0.2003906	-0.0123125
15147.77327	0.2003906	-0.008125
15147.77377	0.2003906	-0.0058125
15147.77427	0.2003906	-0.0078125
15147.77477	0.2003906	-0.0078125
15147.77527	0.2003906	-0.0090625
15147.77577	0.2003906	-0.01225
15147.77627	0.2003906	-0.014625
15147.77677	0.2214844	-0.015
15147.77727	0.2214844	-0.0121875
15147.77777	0.2214844	-0.0048125
15147.77827	0.2214844	0.0051875
15147.77877	0.2214844	0.00375
15147.77927	0.2214844	0.001125
15147.77977	0.2214844	0.00125
15147.78027	0.2214844	-0.0004375
15147.78077	0.2214844	0.0073125
15147.78127	0.2214844	0.0101875
15147.78177	0.4816406	0.0034375
15147.78227	0.4816406	0.0035625
15147.78277	0.4816406	0.0046875
15147.78327	0.4816406	0.002625
15147.78377	0.4816406	0.003
15147.78427	0.4816406	0.004
15147.78477	0.4816406	0.005375
15147.78527	0.4816406	0.0075625
15147.78577	0.4816406	0.008
15147.78627	0.4816406	0.000125
15147.78677	0.2179688	-0.002
15147.78727	0.2179688	0.0058125
15147.78777	0.2179688	0.0089375
15147.78827	0.2179688	0.0088125
15147.78877	0.2179688	0.0109375
15147.78927	0.2179688	0.005125
15147.78977	0.2179688	0.006875
15147.79027	0.2179688	0.010625
15147.79077	0.2179688	0.007
15147.79127	0.2179688	0.0050625
15147.79177	0.0703125	0.0064375
15147.79227	0.0703125	0.0078125
15147.79277	0.0703125	0.0075
15147.79327	0.0703125	0.00675
15147.79377	0.0703125	0.0055625
15147.79427	0.0703125	0.00375
15147.79477	0.0703125	0.0073125
15147.79527	0.0703125	0.0030625
15147.79577	0.0703125	-0.0025625
15147.79627	0.0703125	-0.004
15147.79677	0.421875	-0.0069375
15147.79727	0.421875	-0.0065
15147.79777	0.421875	0.00175
15147.79827	0.421875	0.00075
15147.79877	0.421875	0.002125
15147.79927	0.421875	0.00675
15147.79977	0.421875	0.0053125
15147.80027	0.421875	0.0038125
15147.80077	0.421875	0.00275
15147.80127	0.421875	0.0023125
15147.80177	0.3796875	0.0024375
15147.80227	0.3796875	0.00225
15147.80277	0.3796875	-0.0026875
15147.80327	0.3796875	-0.0105
15147.80377	0.3796875	-0.0059375
15147.80427	0.3796875	-0.0016875
15147.80477	0.3796875	-0.000125
15147.80527	0.3796875	0.00275
15147.80577	0.3796875	-0.00025
15147.80627	0.3796875	-0.001
15147.80677	0.1054688	0.0078125
15147.80727	0.1054688	0.0093125
15147.80777	0.1054688	0.0055625
15147.80827	0.1054688	0.0044375
15147.80877	0.1054688	0.002625
15147.80927	0.1054688	0.00225
15147.80977	0.1054688	0.0014375
15147.81027	0.1054688	-0.000375
15147.81077	0.1054688	-0.003875
15147.81127	0.1054688	-0.0006875
15147.81177	0.4148438	-0.0005
15147.81227	0.4148438	-0.008375
15147.81277	0.4148438	-0.0088125
15147.81327	0.4148438	-0.0061875
15147.81377	0.4148438	-0.0045
15147.81427	0.4148438	0.0054375
15147.81477	0.4148438	0.0071875
15147.81527	0.4148438	0.005375
15147.81577	0.4148438	0.009125
15147.81627	0.4148438	0.01025
15147.81677	0.5449219	0.0075
15147.81727	0.5449219	0.005625
15147.81777	0.5449219	0.0059375
15147.81827	0.5449219	0.0079375
15147.81877	0.5449219	0.0093125
15147.81927	0.5449219	0.0096875
15147.81977	0.5449219	0.003125
15147.82027	0.5449219	0.0036875
15147.82077	0.5449219	0.0071875
15147.82127	0.5449219	0.0038125
15147.82177	0.1300781	0.002125
15147.82227	0.1300781	-0.00075
15147.82277	0.1300781	-0.00875
15147.82327	0.1300781	-0.0063125
15147.82377	0.1300781	-0.005875
15147.82427	0.1300781	-0.011125
15147.82477	0.1300781	-0.0125625
15147.82527	0.1300781	-0.0128125
15147.82577	0.1300781	-0.0108125
15147.82627	0.1300781	-0.0081875
15147.82677	0.2074219	-0.00525
15147.82727	0.2074219	-0.0053125
15147.82777	0.2074219	-0.005375
15147.82827	0.2074219	-0.0015
15147.82877	0.2074219	-0.007625
15147.82927	0.2074219	-0.0130625
15147.82977	0.2074219	-0.0155
15147.83027	0.2074219	-0.01975
15147.83077	0.2074219	-0.015875
15147.83127	0.2074219	-0.0131875
15147.83177	0.5132813	-0.0184375
15147.83227	0.5132813	-0.017375
15147.83277	0.5132813	-0.013
15147.83327	0.5132813	-0.012375
15147.83377	0.5132813	-0.01175
15147.83427	0.5132813	-0.0109375
15147.83477	0.5132813	-0.010375
15147.83527	0.5132813	-0.009625
15147.83577	0.5132813	-0.009125
15147.83627	0.5132813	-0.014625
15147.83677	0.2742188	-0.01725
15147.83727	0.2742188	-0.0096875
15147.83777	0.2742188	-0.0083125
15147.83827	0.2742188	-0.00775
15147.83877	0.2742188	-0.0036875
15147.83927	0.2742188	-0.0073125
15147.83977	0.2742188	-0.004
15147.84027	0.2742188	0.00225
15147.84077	0.2742188	0.0023125
15147.84127	0.2742188	0.003
15147.84177	0.1828125	0.005625
15147.84227	0.1828125	0.00625
15147.84277	0.1828125	0.006125
15147.84327	0.1828125	0.005
15147.84377	0.1828125	0.0035625
15147.84427	0.1828125	0.0035
15147.84477	0.1828125	0.0113125
15147.84527	0.1828125	0.01225
15147.84577	0.1828125	0.0084375
15147.84627	0.1828125	0.00675
15147.84677	0.5132813	0.0026875
15147.84727	0.5132813	0.0001875
15147.84777	0.5132813	0.006375
15147.84827	0.5132813	0.0033125
15147.84877	0.5132813	0.004625
15147.84927	0.5132813	0.0105625
15147.84977	0.5132813	0.00875
15147.85027	0.5132813	0.005875
15147.85077	0.5132813	0.00525
15147.85127	0.5132813	0.005375
15147.85177	0.4464844	0.003875
15147.85227	0.4464844	0.002125
15147.85277	0.4464844	-0.0015625
15147.85327	0.4464844	-0.0098125
15147.85377	0.4464844	-0.00875
15147.85427	0.4464844	-0.0083125
15147.85477	0.4464844	-0.010625
15147.85527	0.4464844	-0.008
15147.85577	0.4464844	-0.011125
15147.85627	0.4464844	-0.0150625
15147.85677	0.1792969	-0.0101875
15147.85727	0.1792969	-0.012
15147.85777	0.1792969	-0.0184375
15147.85827	0.1792969	-0.0199375
15147.85877	0.1792969	-0.0208125
15147.85927	0.1792969	-0.0231875
15147.85977	0.1792969	-0.0251875
15147.86027	0.1792969	-0.025
15147.86077	0.1792969	-0.0240625
15147.86127	0.1792969	-0.0186875
15147.86177	0.4394531	-0.0133125
15147.86227	0.4394531	-0.0165
15147.86277	0.4394531	-0.016875
15147.86327	0.4394531	-0.014625
15147.86377	0.4394531	-0.014375
15147.86427	0.4394531	-0.005375
15147.86477	0.4394531	-0.0064375
15147.86527	0.4394531	-0.0134375
15147.86577	0.4394531	-0.01025
15147.86627	0.4394531	-0.00725
15147.86677	0.5589844	-0.0065
15147.86727	0.5589844	-0.0055625
15147.86777	0.5589844	-0.004875
15147.86827	0.5589844	-0.005625
15147.86877	0.5589844	-0.00575
15147.86927	0.5589844	-0.0065625
15147.86977	0.5589844	-0.01225
15147.87027	0.5589844	-0.01175
15147.87077	0.5589844	-0.0064375
15147.87127	0.5589844	-0.005
15147.87177	0.196875	-0.002875
15147.87227	0.196875	-0.0019375
15147.87277	0.196875	-0.0059375
15147.87327	0.196875	-0.0013125
15147.87377	0.196875	0.0009375
15147.87427	0.196875	-0.00125
15147.87477	0.196875	0.003375
15147.87527	0.196875	0.010125
15147.87577	0.196875	0.014875
15147.87627	0.196875	0.0171875
15147.87677	0.2144531	0.0199375
15147.87727	0.2144531	0.0231875
15147.87777	0.2144531	0.027625
15147.87827	0.2144531	0.0355
15147.87877	0.2144531	0.0336875
15147.87927	0.2144531	0.0296875
15147.87977	0.2144531	0.0288125
15147.88027	0.2144531	0.0239375
15147.88077	0.2144531	0.02825
15147.88127	0.2144531	0.0344375
15147.88177	0.4535156	0.0291875
15147.88227	0.4535156	0.027625
15147.88277	0.4535156	0.0303125
15147.88327	0.4535156	0.0319375
15147.88377	0.4535156	0.0346875
15147.88427	0.4535156	0.0361875
15147.88477	0.4535156	0.0371875
15147.88527	0.4535156	0.0381875
15147.88577	0.4535156	0.03875
15147.88627	0.4535156	0.0365
15147.88677	0.1757813	0.03725
15147.88727	0.1757813	0.0460625
15147.88777	0.1757813	0.0473125
15147.88827	0.1757813	0.0473125
15147.88877	0.1757813	0.0476875
15147.88927	0.1757813	0.0384375
15147.88977	0.1757813	0.037125
15147.89027	0.1757813	0.0414375
15147.89077	0.1757813	0.039
15147.89127	0.1757813	0.034125
15147.89177	0.03164063	0.03225
15147.89227	0.03164063	0.02775
15147.89277	0.03164063	0.021875
15147.89327	0.03164063	0.0181875
15147.89377	0.03164063	0.0180625
15147.89427	0.03164063	0.0170625
15147.89477	0.03164063	0.019375
15147.89527	0.03164063	0.0166875
15147.89577	0.03164063	0.011625
15147.89627	0.03164063	0.013125
15147.89677	0.3761719	0.012
15147.89727	0.3761719	0.0105
15147.89777	0.3761719	0.0128125
15147.89827	0.3761719	0.0053125
15147.89877	0.3761719	6.25e-05
15147.89927	0.3761719	0.002
15147.89977	0.3761719	0.0009375
15147.90027	0.3761719	-0.002
15147.90077	0.3761719	-0.0030625
15147.90127	0.3761719	-0.0018125
15147.90177	0.2882813	-0.00175
15147.90227	0.2882813	-0.0019375
15147.90277	0.2882813	-0.00475
15147.90327	0.2882813	-0.012875
15147.90377	0.2882813	-0.0113125
15147.90427	0.2882813	-0.009875
15147.90477	0.2882813	-0.0126875
15147.90527	0.2882813	-0.014625
15147.90577	0.2882813	-0.0211875
15147.90627	0.2882813	-0.0266875
15147.90677	-0.01054688	-0.020875
15147.90727	-0.01054688	-0.02125
15147.90777	-0.01054688	-0.028
15147.90827	-0.01054688	-0.0320625
15147.90877	-0.01054688	-0.033
15147.90927	-0.01054688	-0.032625
15147.90977	-0.01054688	-0.033125
15147.91027	-0.01054688	-0.0331875
15147.91077	-0.01054688	-0.031125
15147.91127	-0.01054688	-0.0224375
15147.91177	0.2214844	-0.0135
15147.91227	0.2214844	-0.0161875
15147.91277	0.2214844	-0.0154375
15147.91327	0.2214844	-0.0125625
15147.91377	0.2214844	-0.0126875
15147.91427	0.2214844	-0.00525
15147.91477	0.2214844	-0.0039375
15147.91527	0.2214844	-0.00775
15147.91577	0.2214844	-0.004125
15147.91627	0.2214844	-0.0003125
15147.91677	0.2917969	-0.0006875
15147.91727	0.2917969	0.00175
15147.91777	0.2917969	0.002375
15147.91827	0.2917969	0.0005625
15147.91877	0.2917969	0.001375
15147.91927	0.2917969	0.0028125
15147.91977	0.2917969	-0.003625
15147.92027	0.2917969	-0.004125
15147.92077	0.2917969	-0.000375
15147.92127	0.2917969	-0.0026875
15147.92177	-0.0984375	-0.0028125
15147.92227	-0.0984375	0
15147.92277	-0.0984375	-0.0023125
15147.92327	-0.0984375	0.00275
15147.92377	-0.0984375	0.0066875
15147.92427	-0.0984375	0.00325
15147.92477	-0.0984375	0.0023125
15147.92527	-0.0984375	0.002375
15147.92577	-0.0984375	-0.000375
15147.92627	-0.0984375	-0.0025625
15147.92677	-0.05625	-0.0076875
15147.92727	-0.05625	-0.0135625
15147.92777	-0.05625	-0.0171875
15147.92827	-0.05625	-0.0163125
15147.92877	-0.05625	-0.0244375
15147.92927	-0.05625	-0.035125
15147.92977	-0.05625	-0.0423125
15147.93027	-0.05625	-0.0484375
15147.93077	-0.05625	-0.0466875
15147.93127	-0.05625	-0.0431875
15147.93177	0.1757813	-0.050125
15147.93227	0.1757813	-0.0521875
15147.93277	0.1757813	-0.051625
15147.93327	0.1757813	-0.0534375
15147.93377	0.1757813	-0.053375
15147.93427	0.1757813	-0.0525
15147.93477	0.1757813	-0.0521875
15147.93527	0.1757813	-0.0526875
15147.93577	0.1757813	-0.0515
15147.93627	0.1757813	-0.0511875
15147.93677	-0.09140625	-0.050875
15147.93727	-0.09140625	-0.04425
15147.93777	-0.09140625	-0.04225
15147.93827	-0.09140625	-0.043625
15147.93877	-0.09140625	-0.0405
15147.93927	-0.09140625	-0.0444375
15147.93977	-0.09140625	-0.044
15147.94027	-0.09140625	-0.0415
15147.94077	-0.09140625	-0.0476875
15147.94127	-0.09140625	-0.0510625
15147.94177	-0.2320313	-0.04775
15147.94227	-0.2320313	-0.04275
15147.94277	-0.2320313	-0.039375
15147.94327	-0.2320313	-0.0376875
15147.94377	-0.2320313	-0.03525
15147.94427	-0.2320313	-0.03175
15147.94477	-0.2320313	-0.022375
15147.94527	-0.2320313	-0.01875
15147.94577	-0.2320313	-0.0185
15147.94627	-0.2320313	-0.0161875
15147.94677	0.08085938	-0.01675
15147.94727	0.08085938	-0.0154375
15147.94777	0.08085938	-0.0064375
15147.94827	0.08085938	-0.008
15147.94877	0.08085938	-0.0079375
15147.94927	0.08085938	-0.0029375
15147.94977	0.08085938	-0.002875
15147.95027	0.08085938	-0.006
15147.95077	0.08085938	-0.0080625
15147.95127	0.08085938	-0.0114375
15147.95177	-0.0140625	-0.01575
15147.95227	-0.0140625	-0.0184375
15147.95277	-0.0140625	-0.0205
15147.95327	-0.0140625	-0.026
15147.95377	-0.0140625	-0.0219375
15147.95427	-0.0140625	-0.0175
15147.95477	-0.0140625	-0.015125
15147.95527	-0.0140625	-0.0118125
15147.95577	-0.0140625	-0.0131875
15147.95627	-0.0140625	-0.01575
15147.95677	-0.2636719	-0.007875
15147.95727	-0.2636719	-0.0064375
15147.95777	-0.2636719	-0.0079375
15147.95827	-0.2636719	-0.004
15147.95877	-0.2636719	-0.000125
15147.95927	-0.2636719	0.0034375
15147.95977	-0.2636719	0.00375
15147.96027	-0.2636719	0.0038125
15147.96077	-0.2636719	0.00475
15147.96127	-0.2636719	0.0076875
15147.96177	0	0.0093125
15147.96227	0	0.00275
15147.96277	0	-0.0014375
15147.96327	0	-0.003
15147.96377	0	-0.0059375
15147.96427	0	0.0015625
15147.96477	0	0.0021875
15147.96527	0	-0.0010625
15147.96577	0	0.0043125
15147.96627	0	0.0084375
15147.96677	0.084375	0.007
15147.96727	0.084375	0.0054375
15147.96777	0.084375	0.005125
15147.96827	0.084375	0.007125
15147.96877	0.084375	0.0105
15147.96927	0.084375	0.011
15147.96977	0.084375	0.0011875
15147.97027	0.084375	-0.003375
15147.97077	0.084375	-0.000375
15147.97127	0.084375	-0.002125
15147.97177	-0.2355469	-0.0026875
15147.97227	-0.2355469	-0.002625
15147.97277	-0.2355469	-0.0074375
15147.97327	-0.2355469	-0.004125
15147.97377	-0.2355469	-0.0025625
15147.97427	-0.2355469	-0.0091875
15147.97477	-0.2355469	-0.0116875
15147.97527	-0.2355469	-0.009875
15147.97577	-0.2355469	-0.0075
15147.97627	-0.2355469	-0.006
15147.97677	-0.2003906	-0.005
15147.97727	-0.2003906	-0.0046875
15147.97777	-0.2003906	-0.0045625
15147.97827	-0.2003906	-0.001125
15147.97877	-0.2003906	-0.0035625
15147.97927	-0.2003906	-0.0051875
15147.97977	-0.2003906	-0.00575
15147.98027	-0.2003906	-0.009875
15147.98077	-0.2003906	-0.00925
15147.98127	-0.2003906	-0.0060625
15147.98177	0.05976563	-0.0126875
15147.98227	0.05976563	-0.0161875
15147.98277	0.05976563	-0.0174375
15147.98327	0.05976563	-0.0215625
15147.98377	0.05976563	-0.0225625
15147.98427	0.05976563	-0.020625
15147.98477	0.05976563	-0.016375
15147.98527	0.05976563	-0.0144375
15147.98577	0.05976563	-0.0136875
15147.98627	0.05976563	-0.015375
15147.98677	-0.1863281	-0.015875
15147.98727	-0.1863281	-0.0090625
15147.98777	-0.1863281	-0.008625
15147.98827	-0.1863281	-0.0113125
15147.98877	-0.1863281	-0.0104375
15147.98927	-0.1863281	-0.017375
15147.98977	-0.1863281	-0.0178125
15147.99027	-0.1863281	-0.0135625
15147.99077	-0.1863281	-0.01625
15147.99127	-0.1863281	-0.0196875
15147.99177	-0.309375	-0.0219375
15147.99227	-0.309375	-0.023625
15147.99277	-0.309375	-0.026375
15147.99327	-0.309375	-0.027625
15147.99377	-0.309375	-0.0280625
15147.99427	-0.309375	-0.0268125
15147.99477	-0.309375	-0.02125
15147.99527	-0.309375	-0.01825
15147.99577	-0.309375	-0.0199375
15147.99627	-0.309375	-0.0213125
15147.99677	0.04921875	-0.026625
15147.99727	0.04921875	-0.032
15147.99777	0.04921875	-0.02975
15147.99827	0.04921875	-0.03625
15147.99877	0.04921875	-0.0438125
15147.99927	0.04921875	-0.043125
15147.99977	0.04921875	-0.0439375
15148.00027	0.04921875	-0.0465625
15148.00077	0.04921875	-0.049375
15148.00127	0.04921875	-0.0496875
15148.00177	-0.04921875	-0.0481875
15148.00227	-0.04921875	-0.046625
15148.00277	-0.04921875	-0.04975
15148.00327	-0.04921875	-0.0566875
15148.00377	-0.04921875	-0.056
15148.00427	-0.04921875	-0.0544375
15148.00477	-0.04921875	-0.05525
15148.00527	-0.04921875	-0.0534375
15148.00577	-0.04921875	-0.056625
15148.00627	-0.04921875	-0.0593125
15148.00677	-0.4078125	-0.0519375
15148.00727	-0.4078125	-0.0486875
15148.00777	-0.4078125	-0.04825
15148.00827	-0.4078125	-0.0463125
15148.00877	-0.4078125	-0.0465625
15148.00927	-0.4078125	-0.048875
15148.00977	-0.4078125	-0.052125
15148.01027	-0.4078125	-0.0533125
15148.01077	-0.4078125	-0.05525
15148.01127	-0.4078125	-0.05525
15148.01177	-0.2003906	-0.0525
15148.01227	-0.2003906	-0.053375
15148.01277	-0.2003906	-0.0499375
15148.01327	-0.2003906	-0.0445625
15148.01377	-0.2003906	-0.0428125
15148.01427	-0.2003906	-0.032625
15148.01477	-0.2003906	-0.0246875
15148.01527	-0.2003906	-0.02025
15148.01577	-0.2003906	-0.0093125
15148.01627	-0.2003906	0.00225
15148.01677	0.09492188	0.006875
15148.01727	0.09492188	0.0085
15148.01777	0.09492188	0.010125
15148.01827	0.09492188	0.0145625
15148.01877	0.09492188	0.018375
15148.01927	0.09492188	0.017625
15148.01977	0.09492188	0.0085625
15148.02027	0.09492188	0.0075
15148.02077	0.09492188	0.0174375
15148.02127	0.09492188	0.0215
15148.02177	0.1160156	0.0220625
15148.02227	0.1160156	0.0198125
15148.02277	0.1160156	0.0100625
15148.02327	0.1160156	0.0145625
15148.02377	0.1160156	0.0235625
15148.02427	0.1160156	0.0244375
15148.02477	0.1160156	0.0244375
15148.02527	0.1160156	0.0251875
15148.02577	0.1160156	0.0229375
15148.02627	0.1160156	0.018375
15148.02677	0.6855469	0.0129375
15148.02727	0.6855469	0.0086875
15148.02777	0.6855469	0.00825
15148.02827	0.6855469	0.0158125
15148.02877	0.6855469	0.0218125
15148.02927	0.6855469	0.0238125
15148.02977	0.6855469	0.0193125
15148.03027	0.6855469	0.0113125
15148.03077	0.6855469	0.0075625
15148.03127	0.6855469	0.0085625
15148.03177	1.522266	0.008875
15148.03227	1.522266	0.014375
15148.03277	1.522266	0.019
15148.03327	1.522266	0.0173125
15148.03377	1.522266	0.014
15148.03427	1.522266	0.0121875
15148.03477	1.522266	0.0130625
15148.03527	1.522266	0.01625
15148.03577	1.522266	0.023375
15148.03627	1.522266	0.0289375
15148.03677	1.659375	0.02975
15148.03727	1.659375	0.0340625
15148.03777	1.659375	0.0321875
15148.03827	1.659375	0.027
15148.03877	1.659375	0.02525
15148.03927	1.659375	0.018375
15148.03977	1.659375	0.0118125
15148.04027	1.659375	0.009375
15148.04077	1.659375	0.0029375
15148.04127	1.659375	-0.0025625
15148.04177	1.733203	-0.002875
15148.04227	1.733203	-0.0093125
15148.04277	1.733203	-0.0199375
15148.04327	1.733203	-0.033875
15148.04377	1.733203	-0.055
15148.04427	1.733203	-0.0923125
15148.04477	1.733203	-0.136125
15148.04527	1.733203	-0.1800625
15148.04577	1.733203	-0.215125
15148.04627	1.733203	-0.2364375
15148.04677	1.564453	-0.2483125
15148.04727	1.564453	-0.254625
15148.04777	1.564453	-0.2510625
15148.04827	1.564453	-0.253125
15148.04877	1.564453	-0.2491875
15148.04927	1.564453	-0.2313125
15148.04977	1.564453	-0.217375
15148.05027	1.564453	-0.207
15148.05077	1.564453	-0.194
15148.05127	1.564453	-0.1839375
15148.05177	0.6820313	-0.1775
15148.05227	0.6820313	-0.1715
15148.05277	0.6820313	-0.164625
15148.05327	0.6820313	-0.159625
15148.05377	0.6820313	-0.1450625
15148.05427	0.6820313	-0.127375
15148.05477	0.6820313	-0.1124375
15148.05527	0.6820313	-0.09475
15148.05577	0.6820313	-0.0803125
15148.05627	0.6820313	-0.0661875
15148.05677	-0.09140625	-0.0416875
15148.05727	-0.09140625	-0.0191875
15148.05777	-0.09140625	0.001625
15148.05827	-0.09140625	0.02925
15148.05877	-0.09140625	0.0551875
15148.05927	-0.09140625	0.0743125
15148.05977	-0.09140625	0.0874375
15148.06027	-0.09140625	0.100875
15148.06077	-0.09140625	0.1141875
15148.06127	-0.09140625	0.1276875
15148.06177	-0.02460938	0.14125
15148.06227	-0.02460938	0.1496875
15148.06277	-0.02460938	0.1620625
15148.06327	-0.02460938	0.174625
15148.06377	-0.02460938	0.179375
15148.06427	-0.02460938	0.1871875
15148.06477	-0.02460938	0.1884375
15148.06527	-0.02460938	0.1823125
15148.06577	-0.02460938	0.1804375
15148.06627	-0.02460938	0.1758125
15148.06677	0.1125	0.161875
15148.06727	0.1125	0.1474375
15148.06777	0.1125	0.135375
15148.06827	0.1125	0.12375
15148.06877	0.1125	0.109875
15148.06927	0.1125	0.096125
15148.06977	0.1125	0.07625
15148.07027	0.1125	0.062125
15148.07077	0.1125	0.05525
15148.07127	0.1125	0.0423125
15148.07177	-0.2953125	0.030375
15148.07227	-0.2953125	0.0225625
15148.07277	-0.2953125	0.0078125
15148.07327	-0.2953125	0.0015625
15148.07377	-0.2953125	-0.00175
15148.07427	-0.2953125	-0.0080625
15148.07477	-0.2953125	-0.0115
15148.07527	-0.2953125	-0.0120625
15148.07577	-0.2953125	-0.0161875
15148.07627	-0.2953125	-0.022
15148.07677	-0.2882813	-0.0275625
15148.07727	-0.2882813	-0.0325625
15148.07777	-0.2882813	-0.0325
15148.07827	-0.2882813	-0.02175
15148.07877	-0.2882813	-0.0185
15148.07927	-0.2882813	-0.018625
15148.07977	-0.2882813	-0.016375
15148.08027	-0.2882813	-0.01475
15148.08077	-0.2882813	-0.0065
15148.08127	-0.2882813	0.0026875
15148.08177	-0.08789063	-0.0013125
15148.08227	-0.08789063	-0.003125
15148.08277	-0.08789063	-0.0005
15148.08327	-0.08789063	0.0003125
15148.08377	-0.08789063	0.0010625
15148.08427	-0.08789063	-0.0001875
15148.08477	-0.08789063	-0.0018125
15148.08527	-0.08789063	-0.0045625
15148.08577	-0.08789063	-0.010125
15148.08627	-0.08789063	-0.0221875
15148.08677	-0.3480469	-0.034875
15148.08727	-0.3480469	-0.03775
15148.08777	-0.3480469	-0.042875
15148.08827	-0.3480469	-0.047375
15148.08877	-0.3480469	-0.0453125
15148.08927	-0.3480469	-0.0483125
15148.08977	-0.3480469	-0.049125
15148.09027	-0.3480469	-0.0473125
15148.09077	-0.3480469	-0.0519375
15148.09127	-0.3480469	-0.054
15148.09177	-0.5027344	-0.0501875
15148.09227	-0.5027344	-0.0471875
15148.09277	-0.5027344	-0.0428125
15148.09327	-0.5027344	-0.0425625
15148.09377	-0.5027344	-0.0420625
15148.09427	-0.5027344	-0.0401875
15148.09477	-0.5027344	-0.031375
15148.09527	-0.5027344	-0.0268125
15148.09577	-0.5027344	-0.0298125
15148.09627	-0.5027344	-0.0315
15148.09677	-0.2109375	-0.03275
15148.09727	-0.2109375	-0.03025
15148.09777	-0.2109375	-0.0169375
15148.09827	-0.2109375	-0.011625
15148.09877	-0.2109375	-0.0093125
15148.09927	-0.2109375	-0.002375
15148.09977	-0.2109375	0.003375
15148.10027	-0.2109375	0.00575
15148.10077	-0.2109375	0.005625
15148.10127	-0.2109375	0.0035
15148.10177	-0.2742188	0.0004375
15148.10227	-0.2742188	-0.002375
15148.10277	-0.2742188	-0.004625
15148.10327	-0.2742188	-0.0114375
15148.10377	-0.2742188	-0.0103125
15148.10427	-0.2742188	-0.00825
15148.10477	-0.2742188	-0.00975
15148.10527	-0.2742188	-0.009375
15148.10577	-0.2742188	-0.012375
15148.10627	-0.2742188	-0.01675
15148.10677	-0.534375	-0.011125
15148.10727	-0.534375	-0.0103125
15148.10777	-0.534375	-0.0125
15148.10827	-0.534375	-0.011875
15148.10877	-0.534375	-0.00975
15148.10927	-0.534375	-0.0058125
15148.10977	-0.534375	-0.0033125
15148.11027	-0.534375	-0.003125
15148.11077	-0.534375	-0.003375
15148.11127	-0.534375	0.0003125
15148.11177	-0.2707031	0.0051875
15148.11227	-0.2707031	-0.0003125
15148.11277	-0.2707031	-0.0044375
15148.11327	-0.2707031	-0.004
15148.11377	-0.2707031	-0.0045
15148.11427	-0.2707031	0.0001875
15148.11477	-0.2707031	-0.0001875
15148.11527	-0.2707031	-0.0060625
15148.11577	-0.2707031	-0.0043125
15148.11627	-0.2707031	-0.001
15148.11677	-0.140625	-0.0004375
15148.11727	-0.140625	-0.00025
15148.11777	-0.140625	-0.001875
15148.11827	-0.140625	-0.0035625
15148.11877	-0.140625	-0.00375
15148.11927	-0.140625	-0.005125
15148.11977	-0.140625	-0.01475
15148.12027	-0.140625	-0.0183125
15148.12077	-0.140625	-0.013625
15148.12127	-0.140625	-0.012625
15148.12177	-0.45	-0.0119375
15148.12227	-0.45	-0.0095
15148.12277	-0.45	-0.0130625
15148.12327	-0.45	-0.010125
15148.12377	-0.45	-0.008125
15148.12427	-0.45	-0.01175
15148.12477	-0.45	-0.01425
15148.12527	-0.45	-0.0141875
15148.12577	-0.45	-0.0151875
15148.12627	-0.45	-0.0191875
15148.12677	-0.4148438	-0.0228125
15148.12727	-0.4148438	-0.0221875
15148.12777	-0.4148438	-0.015625
15148.12827	-0.4148438	-0.00025
15148.12877	-0.4148438	0.0065625
15148.12927	-0.4148438	0.006
15148.12977	-0.4148438	0.00375
15148.13027	-0.4148438	-0.0036875
15148.13077	-0.4148438	-0.007625
15148.13127	-0.4148438	-0.0088125
15148.13177	-0.1125	-0.01825
15148.13227	-0.1125	-0.0218125
15148.13277	-0.1125	-0.0196875
15148.13327	-0.1125	-0.023125
15148.13377	-0.1125	-0.027
15148.13427	-0.1125	-0.0265625
15148.13477	-0.1125	-0.020625
15148.13527	-0.1125	-0.0140625
15148.13577	-0.1125	-0.010875
15148.13627	-0.1125	-0.01075
15148.13677	-0.3410156	-0.0119375
15148.13727	-0.3410156	-0.001375
15148.13777	-0.3410156	0.0094375
15148.13827	-0.3410156	0.018375
15148.13877	-0.3410156	0.02775
15148.13927	-0.3410156	0.0249375
15148.13977	-0.3410156	0.016125
15148.14027	-0.3410156	0.0113125
15148.14077	-0.3410156	0.0071875
15148.14127	-0.3410156	0.0040625
15148.14177	-0.4851563	0.003625
15148.14227	-0.4851563	0.001875
15148.14277	-0.4851563	-0.00275
15148.14327	-0.4851563	-0.007125
15148.14377	-0.4851563	-0.0069375
15148.14427	-0.4851563	-0.0055
15148.14477	-0.4851563	0.0015625
15148.14527	-0.4851563	0.0055
15148.14577	-0.4851563	0.002875
15148.14627	-0.4851563	0.004375
15148.14677	-0.140625	0.0065
15148.14727	-0.140625	0.0066875
15148.14777	-0.140625	0.0143125
15148.14827	-0.140625	0.0156875
15148.14877	-0.140625	0.015375
15148.14927	-0.140625	0.0184375
15148.14977	-0.140625	0.0174375
15148.15027	-0.140625	0.01325
15148.15077	-0.140625	0.010375
15148.15127	-0.140625	0.0093125
15148.15177	-0.1476563	0.0083125
15148.15227	-0.1476563	0.0060625
15148.15277	-0.1476563	0.0035625
15148.15327	-0.1476563	-0.0046875
15148.15377	-0.1476563	-0.004625
15148.15427	-0.1476563	-0.0005
15148.15477	-0.1476563	0.0001875
15148.15527	-0.1476563	0.0016875
15148.15577	-0.1476563	6.25e-05
15148.15627	-0.1476563	-0.0058125
15148.15677	-0.3761719	-0.0029375
15148.15727	-0.3761719	-0.00525
15148.15777	-0.3761719	-0.0105625
15148.15827	-0.3761719	-0.011625
15148.15877	-0.3761719	-0.0104375
15148.15927	-0.3761719	-0.0115625
15148.15977	-0.3761719	-0.014125
15148.16027	-0.3761719	-0.0184375
15148.16077	-0.3761719	-0.019125
15148.16127	-0.3761719	-0.0143125
15148.16177	-0.1546875	-0.0068125
15148.16227	-0.1546875	-0.0070625
15148.16277	-0.1546875	-0.0063125
15148.16327	-0.1546875	-0.0016875
15148.16377	-0.1546875	0.0006875
15148.16427	-0.1546875	0.008
15148.16477	-0.1546875	0.0099375
15148.16527	-0.1546875	0.003625
15148.16577	-0.1546875	0.0045625
15148.16627	-0.1546875	0.006625
15148.16677	0	0.0035625
15148.16727	0	0.004
15148.16777	0	0.0066875
15148.16827	0	0.0098125
15148.16877	0	0.013375
15148.16927	0	0.019375
15148.16977	0	0.0218125
15148.17027	0	0.0255625
15148.17077	0	0.03475
15148.17127	0	0.0378125
15148.17177	-0.3480469	0.037875
15148.17227	-0.3480469	0.03875
15148.17277	-0.3480469	0.0329375
15148.17327	-0.3480469	0.0355
15148.17377	-0.3480469	0.039125
15148.17427	-0.3480469	0.0356875
15148.17477	-0.3480469	0.0295
15148.17527	-0.3480469	0.0266875
15148.17577	-0.3480469	0.025625
15148.17627	-0.3480469	0.0243125
15148.17677	-0.3515625	0.0220625
15148.17727	-0.3515625	0.018625
15148.17777	-0.3515625	0.019375
15148.17827	-0.3515625	0.02775
15148.17877	-0.3515625	0.0264375
15148.17927	-0.3515625	0.0188125
15148.17977	-0.3515625	0.01125
15148.18027	-0.3515625	0.0016875
15148.18077	-0.3515625	-0.0030625
15148.18127	-0.3515625	-0.0004375
15148.18177	-0.08085938	-0.0075
15148.18227	-0.08085938	-0.0155625
15148.18277	-0.08085938	-0.020625
15148.18327	-0.08085938	-0.0284375
15148.18377	-0.08085938	-0.03475
15148.18427	-0.08085938	-0.037375
15148.18477	-0.08085938	-0.03825
15148.18527	-0.08085938	-0.0388125
15148.18577	-0.08085938	-0.041
15148.18627	-0.08085938	-0.0426875
15148.18677	-0.3269531	-0.0445
15148.18727	-0.3269531	-0.039625
15148.18777	-0.3269531	-0.0358125
15148.18827	-0.3269531	-0.0353125
15148.18877	-0.3269531	-0.0321875
15148.18927	-0.3269531	-0.0366875
15148.18977	-0.3269531	-0.038875
15148.19027	-0.3269531	-0.034
15148.19077	-0.3269531	-0.03425
15148.19127	-0.3269531	-0.0345
15148.19177	-0.45	-0.031125
15148.19227	-0.45	-0.0295625
15148.19277	-0.45	-0.024875
15148.19327	-0.45	-0.019875
15148.19377	-0.45	-0.0145
15148.19427	-0.45	-0.0118125
15148.19477	-0.45	-0.0045
15148.19527	-0.45	0.0019375
15148.19577	-0.45	0.0039375
15148.19627	-0.45	0.0090625
15148.19677	-0.1511719	0.0124375
15148.19727	-0.1511719	0.013
15148.19777	-0.1511719	0.021
15148.19827	-0.1511719	0.0211875
15148.19877	-0.1511719	0.0175625
15148.19927	-0.1511719	0.018
15148.19977	-0.1511719	0.01775
15148.20027	-0.1511719	0.017875
15148.20077	-0.1511719	0.020125
15148.20127	-0.1511719	0.0213125
15148.20177	-0.2214844	0.019875
15148.20227	-0.2214844	0.018
15148.20277	-0.2214844	0.0178125
15148.20327	-0.2214844	0.0130625
15148.20377	-0.2214844	0.014875
15148.20427	-0.2214844	0.0168125
15148.20477	-0.2214844	0.0135
15148.20527	-0.2214844	0.01425
15148.20577	-0.2214844	0.015
15148.20627	-0.2214844	0.01125
15148.20677	-0.4921875	0.0153125
15148.20727	-0.4921875	0.016
15148.20777	-0.4921875	0.011125
15148.20827	-0.4921875	0.0080625
15148.20877	-0.4921875	0.004625
15148.20927	-0.4921875	-0.0006875
15148.20977	-0.4921875	-0.00525
15148.21027	-0.4921875	-0.00575
15148.21077	-0.4921875	-0.0028125
15148.21127	-0.4921875	0.003875
15148.21177	-0.3058594	0.0139375
15148.21227	-0.3058594	0.01775
15148.21277	-0.3058594	0.019625
15148.21327	-0.3058594	0.021125
15148.21377	-0.3058594	0.019125
15148.21427	-0.3058594	0.023875
15148.21477	-0.3058594	0.0291875
15148.21527	-0.3058594	0.02725
15148.21577	-0.3058594	0.0288125
15148.21627	-0.3058594	0.0314375
15148.21677	-0.16875	0.028125
15148.21727	-0.16875	0.0248125
15148.21777	-0.16875	0.0234375
15148.21827	-0.16875	0.022125
15148.21877	-0.16875	0.020625
15148.21927	-0.16875	0.0196875
15148.21977	-0.16875	0.015375
15148.22027	-0.16875	0.0131875
15148.22077	-0.16875	0.018625
15148.22127	-0.16875	0.0175625
15148.22177	-0.4640625	0.0131875
15148.22227	-0.4640625	0.0136875
15148.22277	-0.4640625	0.00975
15148.22327	-0.4640625	0.012875
15148.22377	-0.4640625	0.01675
15148.22427	-0.4640625	0.0141875
15148.22477	-0.4640625	0.0110625
15148.22527	-0.4640625	0.0104375
15148.22577	-0.4640625	0.0095625
15148.22627	-0.4640625	0.0098125
15148.22677	-0.4710938	0.0094375
15148.22727	-0.4710938	0.0074375
15148.22777	-0.4710938	0.0070625
15148.22827	-0.4710938	0.0133125
15148.22877	-0.4710938	0.014375
15148.22927	-0.4710938	0.011
15148.22977	-0.4710938	0.01225
15148.23027	-0.4710938	0.013875
15148.23077	-0.4710938	0.017375
15148.23127	-0.4710938	0.024375
15148.23177	-0.225	0.0196875
15148.23227	-0.225	0.01875
15148.23277	-0.225	0.0244375
15148.23327	-0.225	0.025875
15148.23377	-0.225	0.02225
15148.23427	-0.225	0.017375
15148.23477	-0.225	0.0164375
15148.23527	-0.225	0.019375
15148.23577	-0.225	0.0236875
15148.23627	-0.225	0.0225
15148.23677	-0.4113281	0.0153125
15148.23727	-0.4113281	0.0155
15148.23777	-0.4113281	0.0168125
15148.23827	-0.4113281	0.0175
15148.23877	-0.4113281	0.02125
15148.23927	-0.4113281	0.0203125
15148.23977	-0.4113281	0.0215625
15148.24027	-0.4113281	0.0286875
15148.24077	-0.4113281	0.029
15148.24127	-0.4113281	0.026125
15148.24177	-0.534375	0.027375
15148.24227	-0.534375	0.027375
15148.24277	-0.534375	0.021125
15148.24327	-0.534375	0.0106875
15148.24377	-0.534375	0.003125
15148.24427	-0.534375	0.0014375
15148.24477	-0.534375	0.002875
15148.24527	-0.534375	-0.0010625
15148.24577	-0.534375	-0.0140625
15148.24627	-0.534375	-0.022875
15148.24677	-0.225	-0.026375
15148.24727	-0.225	-0.0256875
15148.24777	-0.225	-0.0153125
15148.24827	-0.225	-0.013875
15148.24877	-0.225	-0.0166875
15148.24927	-0.225	-0.0116875
15148.24977	-0.225	-0.0030625
15148.25027	-0.225	0.006125
15148.25077	-0.225	0.014125
15148.25127	-0.225	0.017375
15148.25177	-0.2671875	0.0193125
15148.25227	-0.2671875	0.0221875
15148.25277	-0.2671875	0.0271875
15148.25327	-0.2671875	0.0254375
15148.25377	-0.2671875	0.024625
15148.25427	-0.2671875	0.0235625
15148.25477	-0.2671875	0.0199375
15148.25527	-0.2671875	0.020125
15148.25577	-0.2671875	0.0186875
15148.25627	-0.2671875	0.009375
15148.25677	-0.5273438	0.008375
15148.25727	-0.5273438	0.0079375
15148.25777	-0.5273438	0.005625
15148.25827	-0.5273438	0.008125
15148.25877	-0.5273438	0.012125
15148.25927	-0.5273438	0.01475
15148.25977	-0.5273438	0.0173125
15148.26027	-0.5273438	0.017875
15148.26077	-0.5273438	0.0191875
15148.26127	-0.5273438	0.021625
15148.26177	-0.2777344	0.025
15148.26227	-0.2777344	0.01975
15148.26277	-0.2777344	0.014875
15148.26327	-0.2777344	0.0125
15148.26377	-0.2777344	0.0056875
15148.26427	-0.2777344	0.0068125
15148.26477	-0.2777344	0.00875
15148.26527	-0.2777344	0.0059375
15148.26577	-0.2777344	0.0066875
15148.26627	-0.2777344	0.00475
15148.26677	-0.1230469	-0.001
15148.26727	-0.1230469	-0.0064375
15148.26777	-0.1230469	-0.007375
15148.26827	-0.1230469	-0.0064375
15148.26877	-0.1230469	-0.0075625
15148.26927	-0.1230469	-0.00925
15148.26977	-0.1230469	-0.0125625
15148.27027	-0.1230469	-0.0119375
15148.27077	-0.1230469	-0.0034375
15148.27127	-0.1230469	0.00025
15148.27177	-0.3796875	0.0014375
15148.27227	-0.3796875	0.0055625
15148.27277	-0.3796875	0.0094375
15148.27327	-0.3796875	0.01875
15148.27377	-0.3796875	0.0278125
15148.27427	-0.3796875	0.027625
15148.27477	-0.3796875	0.0255625
15148.27527	-0.3796875	0.0254375
15148.27577	-0.3796875	0.02275
15148.27627	-0.3796875	0.0186875
15148.27677	-0.3445313	0.0139375
15148.27727	-0.3445313	0.01225
15148.27777	-0.3445313	0.0118125
15148.27827	-0.3445313	0.0148125
15148.27877	-0.3445313	0.0104375
15148.27927	-0.3445313	0.0031875
15148.27977	-0.3445313	-0.0024375
15148.28027	-0.3445313	-0.0079375
15148.28077	-0.3445313	-0.0110625
15148.28127	-0.3445313	-0.007375
15148.28177	-0.07382813	-0.0096875
15148.28227	-0.07382813	-0.009
15148.28277	-0.07382813	-0.004625
15148.28327	-0.07382813	-0.0054375
15148.28377	-0.07382813	-0.007125
15148.28427	-0.07382813	-0.0058125
15148.28477	-0.07382813	-0.0025625
15148.28527	-0.07382813	0.00175
15148.28577	-0.07382813	0.0040625
15148.28627	-0.07382813	0.0009375
15148.28677	-0.2144531	-0.0041875
15148.28727	-0.2144531	0.00325
15148.28777	-0.2144531	0.0085
15148.28827	-0.2144531	0.00725
15148.28877	-0.2144531	0.0075625
15148.28927	-0.2144531	0.004375
15148.28977	-0.2144531	0.00425
15148.29027	-0.2144531	0.011625
15148.29077	-0.2144531	0.013375
15148.29127	-0.2144531	0.01
15148.29177	-0.3550781	0.0073125
15148.29227	-0.3550781	0.0068125
15148.29277	-0.3550781	0.007875
15148.29327	-0.3550781	0.0090625
15148.29377	-0.3550781	0.0103125
15148.29427	-0.3550781	0.006375
15148.29477	-0.3550781	0.0021875
15148.29527	-0.3550781	0.00175
15148.29577	-0.3550781	-0.000875
15148.29627	-0.3550781	-0.0003125
15148.29677	-0.0140625	-0.001625
15148.29727	-0.0140625	-0.0048125
15148.29777	-0.0140625	0.0034375
15148.29827	-0.0140625	0.0088125
15148.29877	-0.0140625	0.010875
15148.29927	-0.0140625	0.012625
15148.29977	-0.0140625	0.010375
15148.30027	-0.0140625	0.0068125
15148.30077	-0.0140625	0.00725
15148.30127	-0.0140625	0.0104375
15148.30177	-0.04921875	0.016
15148.30227	-0.04921875	0.019375
15148.30277	-0.04921875	0.020375
15148.30327	-0.04921875	0.0133125
15148.30377	-0.04921875	0.0113125
15148.30427	-0.04921875	0.013
15148.30477	-0.04921875	0.0103125
15148.30527	-0.04921875	0.0063125
15148.30577	-0.04921875	0.0005
15148.30627	-0.04921875	-0.009125
15148.30677	-0.3410156	-0.0095625
15148.30727	-0.3410156	-0.0103125
15148.30777	-0.3410156	-0.014
15148.30827	-0.3410156	-0.0129375
15148.30877	-0.3410156	-0.0106875
15148.30927	-0.3410156	-0.00975
15148.30977	-0.3410156	-0.0075625
15148.31027	-0.3410156	-0.0043125
15148.31077	-0.3410156	-0.002375
15148.31127	-0.3410156	0.0015625
15148.31177	-0.1371094	0.0110625
15148.31227	-0.1371094	0.0133125
15148.31277	-0.1371094	0.013625
15148.31327	-0.1371094	0.0140625
15148.31377	-0.1371094	0.0123125
15148.31427	-0.1371094	0.017125
15148.31477	-0.1371094	0.0205
15148.31527	-0.1371094	0.018125
15148.31577	-0.1371094	0.01975
15148.31627	-0.1371094	0.0203125
15148.31677	-0.0140625	0.0155
15148.31727	-0.0140625	0.011375
15148.31777	-0.0140625	0.0088125
15148.31827	-0.0140625	0.008625
15148.31877	-0.0140625	0.01025
15148.31927	-0.0140625	0.0104375
15148.31977	-0.0140625	0.0058125
15148.32027	-0.0140625	0.0023125
15148.32077	-0.0140625	0.0044375
15148.32127	-0.0140625	0.000125
15148.32177	-0.3023438	-0.00675
15148.32227	-0.3023438	-0.0091875
15148.32277	-0.3023438	-0.017125
15148.32327	-0.3023438	-0.0143125
15148.32377	-0.3023438	-0.0028125
15148.32427	-0.3023438	0.0028125
15148.32477	-0.3023438	0.0055
15148.32527	-0.3023438	0.0085
15148.32577	-0.3023438	0.0110625
15148.32627	-0.3023438	0.014375
15148.32677	-0.2953125	0.01525
15148.32727	-0.2953125	0.013375
15148.32777	-0.2953125	0.0096875
15148.32827	-0.2953125	0.0115
15148.32877	-0.2953125	0.0105625
15148.32927	-0.2953125	0.0055625
15148.32977	-0.2953125	0.00175
15148.33027	-0.2953125	-0.0024375
15148.33077	-0.2953125	-0.00125
15148.33127	-0.2953125	0.0084375
15148.33177	-0.03867188	0.0069375
15148.33227	-0.03867188	0.0048125
15148.33277	-0.03867188	0.01175
15148.33327	-0.03867188	0.0166875
15148.33377	-0.03867188	0.017375
15148.33427	-0.03867188	0.017
15148.33477	-0.03867188	0.015625
15148.33527	-0.03867188	0.01625
15148.33577	-0.03867188	0.014875
15148.33627	-0.03867188	0.01125
15148.33677	-0.1933594	0.0029375
15148.33727	-0.1933594	0.0041875
15148.33777	-0.1933594	0.00525
15148.33827	-0.1933594	0.0021875
15148.33877	-0.1933594	-0.001625
15148.33927	-0.1933594	-0.006
15148.33977	-0.1933594	-0.0063125
15148.34027	-0.1933594	0.0019375
15148.34077	-0.1933594	0.007
15148.34127	-0.1933594	0.00925
15148.34177	-0.3867188	0.01425
15148.34227	-0.3867188	0.017125
15148.34277	-0.3867188	0.0178125
15148.34327	-0.3867188	0.0189375
15148.34377	-0.3867188	0.016
15148.34427	-0.3867188	0.0096875
15148.34477	-0.3867188	0.0060625
15148.34527	-0.3867188	0.0074375
15148.34577	-0.3867188	0.0068125
15148.34627	-0.3867188	0.0083125
15148.34677	-0.1230469	0.010875
15148.34727	-0.1230469	0.0081875
15148.34777	-0.1230469	0.0104375
15148.34827	-0.1230469	0.011
15148.34877	-0.1230469	0.011125
15148.34927	-0.1230469	0.01475
15148.34977	-0.1230469	0.0124375
15148.35027	-0.1230469	0.0043125
15148.35077	-0.1230469	-0.004625
15148.35127	-0.1230469	-0.009625
15148.35177	-0.1511719	-0.008375
15148.35227	-0.1511719	-0.005875
15148.35277	-0.1511719	-0.006875
15148.35327	-0.1511719	-0.01625
15148.35377	-0.1511719	-0.017375
15148.35427	-0.1511719	-0.011125
15148.35477	-0.1511719	-0.0096875
15148.35527	-0.1511719	-0.010125
15148.35577	-0.1511719	-0.0076875
15148.35627	-0.1511719	-0.007625
15148.35677	-0.4429688	-0.000375
15148.35727	-0.4429688	0.0008125
15148.35777	-0.4429688	-0.0045
15148.35827	-0.4429688	-0.0091875
15148.35877	-0.4429688	-0.0111875
15148.35927	-0.4429688	-0.00825
15148.35977	-0.4429688	-0.0034375
15148.36027	-0.4429688	-0.000625
15148.36077	-0.4429688	-0.000375
15148.36127	-0.4429688	-0.000625
15148.36177	-0.309375	0.0039375
15148.36227	-0.309375	0.0026875
15148.36277	-0.309375	-0.0001875
15148.36327	-0.309375	-0.003375
15148.36377	-0.309375	-0.0081875
15148.36427	-0.309375	-0.004
15148.36477	-0.309375	0.0015
15148.36527	-0.309375	0.0006875
15148.36577	-0.309375	0.0046875
15148.36627	-0.309375	0.0091875
15148.36677	-0.1933594	0.007875
15148.36727	-0.1933594	0.0085625
15148.36777	-0.1933594	0.012375
15148.36827	-0.1933594	0.016875
15148.36877	-0.1933594	0.0189375
15148.36927	-0.1933594	0.02
15148.36977	-0.1933594	0.020375
15148.37027	-0.1933594	0.0203125
15148.37077	-0.1933594	0.0264375
15148.37127	-0.1933594	0.0285625
15148.37177	-0.4570313	0.029375
15148.37227	-0.4570313	0.0305
15148.37277	-0.4570313	0.0226875
15148.37327	-0.4570313	0.0181875
15148.37377	-0.4570313	0.019
15148.37427	-0.4570313	0.0178125
15148.37477	-0.4570313	0.0179375
15148.37527	-0.4570313	0.0193125
15148.37577	-0.4570313	0.0179375
15148.37627	-0.4570313	0.0143125
15148.37677	-0.478125	0.0100625
15148.37727	-0.478125	0.0036875
15148.37777	-0.478125	-0.0060625
15148.37827	-0.478125	-0.011375
15148.37877	-0.478125	-0.0135625
15148.37927	-0.478125	-0.012875
15148.37977	-0.478125	-0.0111875
15148.38027	-0.478125	-0.009
15148.38077	-0.478125	-0.002625
15148.38127	-0.478125	0.0075625
15148.38177	-0.2601563	0.003875
15148.38227	-0.2601563	-0.0015625
15148.38277	-0.2601563	0.0011875
15148.38327	-0.2601563	0.002125
15148.38377	-0.2601563	0.0008125
15148.38427	-0.2601563	0.002125
15148.38477	-0.2601563	0.0033125
15148.38527	-0.2601563	0.001375
15148.38577	-0.2601563	-0.0011875
15148.38627	-0.2601563	-0.0036875
15148.38677	-0.4464844	-0.0095
15148.38727	-0.4464844	-0.0099375
15148.38777	-0.4464844	-0.0110625
15148.38827	-0.4464844	-0.012
15148.38877	-0.4464844	-0.008125
15148.38927	-0.4464844	-0.0100625
15148.38977	-0.4464844	-0.015125
15148.39027	-0.4464844	-0.011125
15148.39077	-0.4464844	-0.0078125
15148.39127	-0.4464844	-0.0043125
15148.39177	-0.6046875	0.0026875
15148.39227	-0.6046875	0.0063125
15148.39277	-0.6046875	0.0045
15148.39327	-0.6046875	-0.0015625
15148.39377	-0.6046875	-0.0045
15148.39427	-0.6046875	-0.005125
15148.39477	-0.6046875	-0.0018125
15148.39527	-0.6046875	0.0015
15148.39577	-0.6046875	-0.00275
15148.39627	-0.6046875	-0.0048125
15148.39677	-0.3269531	-0.005375
15148.39727	-0.3269531	-0.0045625
15148.39777	-0.3269531	0.006375
15148.39827	-0.3269531	0.0108125
15148.39877	-0.3269531	0.0068125
15148.39927	-0.3269531	0.00375
15148.39977	-0.3269531	0.001
15148.40027	-0.3269531	0.00075
15148.40077	-0.3269531	0.0040625
15148.40127	-0.3269531	0.00725
15148.40177	-0.3375	0.008
15148.40227	-0.3375	0.01
15148.40277	-0.3375	0.010125
15148.40327	-0.3375	0.0041875
15148.40377	-0.3375	0.0034375
15148.40427	-0.3375	0.008625
15148.40477	-0.3375	0.008875
15148.40527	-0.3375	0.008
15148.40577	-0.3375	0.0075625
15148.40627	-0.3375	0.001375
15148.40677	-0.6222656	0.0045625
15148.40727	-0.6222656	0.0109375
15148.40777	-0.6222656	0.015875
15148.40827	-0.6222656	0.0200625
15148.40877	-0.6222656	0.01975
15148.40927	-0.6222656	0.0153125
15148.40977	-0.6222656	0.009875
15148.41027	-0.6222656	0.0058125
15148.41077	-0.6222656	0.0019375
15148.41127	-0.6222656	0.0005625
15148.41177	-0.4710938	0.0035
15148.41227	-0.4710938	0
15148.41277	-0.4710938	-0.0055
15148.41327	-0.4710938	-0.0074375
15148.41377	-0.4710938	-0.009875
15148.41427	-0.4710938	-0.00975
15148.41477	-0.4710938	-0.0115625
15148.41527	-0.4710938	-0.023
15148.41577	-0.4710938	-0.029875
15148.41627	-0.4710938	-0.031875
15148.41677	-0.253125	-0.037125
15148.41727	-0.253125	-0.0434375
15148.41777	-0.253125	-0.0480625
15148.41827	-0.253125	-0.0516875
15148.41877	-0.253125	-0.053875
15148.41927	-0.253125	-0.0519375
15148.41977	-0.253125	-0.050125
15148.42027	-0.253125	-0.0479375
15148.42077	-0.253125	-0.036375
15148.42127	-0.253125	-0.0264375
15148.42177	-0.5027344	-0.0219375
15148.42227	-0.5027344	-0.0204375
15148.42277	-0.5027344	-0.0256875
15148.42327	-0.5027344	-0.027
15148.42377	-0.5027344	-0.025875
15148.42427	-0.5027344	-0.029375
15148.42477	-0.5027344	-0.032625
15148.42527	-0.5027344	-0.0341875
15148.42577	-0.5027344	-0.03525
15148.42627	-0.5027344	-0.0375
15148.42677	-0.478125	-0.036375
15148.42727	-0.478125	-0.034125
15148.42777	-0.478125	-0.03225
15148.42827	-0.478125	-0.0265
15148.42877	-0.478125	-0.0238125
15148.42927	-0.478125	-0.02275
15148.42977	-0.478125	-0.0134375
15148.43027	-0.478125	-0.0026875
15148.43077	-0.478125	0.0071875
15148.43127	-0.478125	0.024125
15148.43177	-0.2144531	0.0315
15148.43227	-0.2144531	0.0345
15148.43277	-0.2144531	0.042625
15148.43327	-0.2144531	0.04775
15148.43377	-0.2144531	0.0533125
15148.43427	-0.2144531	0.059375
15148.43477	-0.2144531	0.0598125
15148.43527	-0.2144531	0.056375
15148.43577	-0.2144531	0.0526875
15148.43627	-0.2144531	0.0519375
15148.43677	-0.3691406	0.045625
15148.43727	-0.3691406	0.043375
15148.43777	-0.3691406	0.0380625
15148.43827	-0.3691406	0.027375
15148.43877	-0.3691406	0.0196875
15148.43927	-0.3691406	0.0150625
15148.43977	-0.3691406	0.01425
15148.44027	-0.3691406	0.02175
15148.44077	-0.3691406	0.0251875
15148.44127	-0.3691406	0.0246875
15148.44177	-0.4816406	0.0275
15148.44227	-0.4816406	0.0316875
15148.44277	-0.4816406	0.035625
15148.44327	-0.4816406	0.034875
15148.44377	-0.4816406	0.0293125
15148.44427	-0.4816406	0.0188125
15148.44477	-0.4816406	0.011125
15148.44527	-0.4816406	0.0085625
15148.44577	-0.4816406	0.0043125
15148.44627	-0.4816406	0.002625
15148.44677	-0.1863281	0.000125
15148.44727	-0.1863281	-0.0036875
15148.44777	-0.1863281	0.00375
15148.44827	-0.1863281	0.009
15148.44877	-0.1863281	0.009
15148.44927	-0.1863281	0.0120625
15148.44977	-0.1863281	0.013125
15148.45027	-0.1863281	0.0105625
15148.45077	-0.1863281	0.0095
15148.45127	-0.1863281	0.0108125
15148.45177	-0.253125	0.0139375
15148.45227	-0.253125	0.012625
15148.45277	-0.253125	0.0090625
15148.45327	-0.253125	0.0005
15148.45377	-0.253125	-0.0028125
15148.45427	-0.253125	6.25e-05
15148.45477	-0.253125	0.0038125
15148.45527	-0.253125	0.0081875
15148.45577	-0.253125	0.01225
15148.45627	-0.253125	0.009375
15148.45677	-0.5589844	0.0133125
15148.45727	-0.5589844	0.019625
15148.45777	-0.5589844	0.0229375
15148.45827	-0.5589844	0.02725
15148.45877	-0.5589844	0.0310625
15148.45927	-0.5589844	0.0361875
15148.45977	-0.5589844	0.0428125
15148.46027	-0.5589844	0.0488125
15148.46077	-0.5589844	0.05025
15148.46127	-0.5589844	0.05
15148.46177	-0.39375	0.0544375
15148.46227	-0.39375	0.0533125
15148.46277	-0.39375	0.048375
15148.46327	-0.39375	0.0380625
15148.46377	-0.39375	0.0215625
15148.46427	-0.39375	0.0140625
15148.46477	-0.39375	0.01725
15148.46527	-0.39375	0.0179375
15148.46577	-0.39375	0.019125
15148.46627	-0.39375	0.01525
15148.46677	-0.2496094	0.00625
15148.46727	-0.2496094	-0.00175
15148.46777	-0.2496094	-0.0018125
15148.46827	-0.2496094	0.0039375
15148.46877	-0.2496094	0.0090625
15148.46927	-0.2496094	0.0134375
15148.46977	-0.2496094	0.0119375
15148.47027	-0.2496094	0.00525
15148.47077	-0.2496094	0.0044375
15148.47127	-0.2496094	0.0011875
15148.47177	-0.5167969	-0.001875
15148.47227	-0.5167969	-0.0026875
15148.47277	-0.5167969	-0.0106875
15148.47327	-0.5167969	-0.0195625
15148.47377	-0.5167969	-0.022625
15148.47427	-0.5167969	-0.0275625
15148.47477	-0.5167969	-0.027125
15148.47527	-0.5167969	-0.0218125
15148.47577	-0.5167969	-0.0181875
15148.47627	-0.5167969	-0.017625
15148.47677	-0.5097656	-0.0183125
15148.47727	-0.5097656	-0.0201875
15148.47777	-0.5097656	-0.0228125
15148.47827	-0.5097656	-0.0175625
15148.47877	-0.5097656	-0.01025
15148.47927	-0.5097656	-0.0039375
15148.47977	-0.5097656	0.000375
15148.48027	-0.5097656	0.0013125
15148.48077	-0.5097656	0.0044375
15148.48127	-0.5097656	0.0131875
15148.48177	-0.2285156	0.0103125
15148.48227	-0.2285156	0.0021875
15148.48277	-0.2285156	-0.0029375
15148.48327	-0.2285156	-0.006
15148.48377	-0.2285156	-0.0065
15148.48427	-0.2285156	-0.0064375
15148.48477	-0.2285156	-0.0020625
15148.48527	-0.2285156	0.002
15148.48577	-0.2285156	0.003875
15148.48627	-0.2285156	0.005375
15148.48677	-0.3902344	0.003625
15148.48727	-0.3902344	0.010875
15148.48777	-0.3902344	0.0171875
15148.48827	-0.3902344	0.016375
15148.48877	-0.3902344	0.0143125
15148.48927	-0.3902344	0.0123125
15148.48977	-0.3902344	0.0085625
15148.49027	-0.3902344	0.0123125
15148.49077	-0.3902344	0.0175
15148.49127	-0.3902344	0.0210625
15148.49177	-0.5765625	0.024625
15148.49227	-0.5765625	0.0230625
15148.49277	-0.5765625	0.01825
15148.49327	-0.5765625	0.0129375
15148.49377	-0.5765625	0.013125
15148.49427	-0.5765625	0.0146875
15148.49477	-0.5765625	0.015375
15148.49527	-0.5765625	0.0161875
15148.49577	-0.5765625	0.013375
15148.49627	-0.5765625	0.0143125
15148.49677	-0.3621094	0.0174375
15148.49727	-0.3621094	0.0183125
15148.49777	-0.3621094	0.0235625
15148.49827	-0.3621094	0.0260625
15148.49877	-0.3621094	0.024875
15148.49927	-0.3621094	0.0278125
15148.49977	-0.3621094	0.03075
15148.50027	-0.3621094	0.03325
15148.50077	-0.3621094	0.0394375
15148.50127	-0.3621094	0.0451875
15148.50177	-0.3796875	0.0478125
15148.50227	-0.3796875	0.0499375
15148.50277	-0.3796875	0.0498125
15148.50327	-0.3796875	0.041375
15148.50377	-0.3796875	0.03
15148.50427	-0.3796875	0.022
15148.50477	-0.3796875	0.016875
15148.50527	-0.3796875	0.0185
15148.50577	-0.3796875	0.0205
15148.50627	-0.3796875	0.009
15148.50677	-0.6644531	0.003625
15148.50727	-0.6644531	0.0015625
15148.50777	-0.6644531	-0.0005625
15148.50827	-0.6644531	-0.0015625
15148.50877	-0.6644531	-0.0028125
15148.50927	-0.6644531	-0.0061875
15148.50977	-0.6644531	-0.0134375
15148.51027	-0.6644531	-0.02175
15148.51077	-0.6644531	-0.0273125
15148.51127	-0.6644531	-0.0291875
15148.51177	-0.5414063	-0.0268125
15148.51227	-0.5414063	-0.0309375
15148.51277	-0.5414063	-0.0349375
15148.51327	-0.5414063	-0.0375625
15148.51377	-0.5414063	-0.0406875
15148.51427	-0.5414063	-0.0366875
15148.51477	-0.5414063	-0.028625
15148.51527	-0.5414063	-0.029375
15148.51577	-0.5414063	-0.0305625
15148.51627	-0.5414063	-0.0316875
15148.51677	-0.3480469	-0.0348125
15148.51727	-0.3480469	-0.038375
15148.51777	-0.3480469	-0.0428125
15148.51827	-0.3480469	-0.047
15148.51877	-0.3480469	-0.048375
15148.51927	-0.3480469	-0.046125
15148.51977	-0.3480469	-0.0415625
15148.52027	-0.3480469	-0.0360625
15148.52077	-0.3480469	-0.0246875
15148.52127	-0.3480469	-0.018
15148.52177	-0.6011719	-0.012625
15148.52227	-0.6011719	-0.005125
15148.52277	-0.6011719	-0.002875
15148.52327	-0.6011719	0.0034375
15148.52377	-0.6011719	0.0145625
15148.52427	-0.6011719	0.0208125
15148.52477	-0.6011719	0.0245625
15148.52527	-0.6011719	0.0320625
15148.52577	-0.6011719	0.0371875
15148.52627	-0.6011719	0.040875
15148.52677	-0.6644531	0.04
15148.52727	-0.6644531	0.03475
15148.52777	-0.6644531	0.025625
15148.52827	-0.6644531	0.0210625
15148.52877	-0.6644531	0.017375
15148.52927	-0.6644531	0.0096875
15148.52977	-0.6644531	0.002375
15148.53027	-0.6644531	-0.0091875
15148.53077	-0.6644531	-0.0169375
15148.53127	-0.6644531	-0.0116875
15148.53177	-0.3234375	-0.0115625
15148.53227	-0.3234375	-0.0118125
15148.53277	-0.3234375	-0.0045
15148.53327	-0.3234375	0.0003125
15148.53377	-0.3234375	0.0038125
15148.53427	-0.3234375	0.008625
15148.53477	-0.3234375	0.01575
15148.53527	-0.3234375	0.0258125
15148.53577	-0.3234375	0.0359375
15148.53627	-0.3234375	0.0403125
15148.53677	-0.4429688	0.03675
15148.53727	-0.4429688	0.0388125
15148.53777	-0.4429688	0.040625
15148.53827	-0.4429688	0.0389375
15148.53877	-0.4429688	0.0408125
15148.53927	-0.4429688	0.03675
15148.53977	-0.4429688	0.0251875
15148.54027	-0.4429688	0.0238125
15148.54077	-0.4429688	0.0239375
15148.54127	-0.4429688	0.022875
15148.54177	-0.6996094	0.0229375
15148.54227	-0.6996094	0.0208125
15148.54277	-0.6996094	0.019625
15148.54327	-0.6996094	0.019
15148.54377	-0.6996094	0.018375
15148.54427	-0.6996094	0.0201875
15148.54477	-0.6996094	0.021125
15148.54527	-0.6996094	0.021875
15148.54577	-0.6996094	0.0156875
15148.54627	-0.6996094	0.0106875
15148.54677	-0.4113281	0.0065
15148.54727	-0.4113281	0
15148.54777	-0.4113281	0.001125
15148.54827	-0.4113281	0.0009375
15148.54877	-0.4113281	-0.004
15148.54927	-0.4113281	-0.0036875
15148.54977	-0.4113281	-0.0044375
15148.55027	-0.4113281	-0.0089375
15148.55077	-0.4113281	-0.0121875
15148.55127	-0.4113281	-0.017125
15148.55177	-0.3832031	-0.02575
15148.55227	-0.3832031	-0.0335625
15148.55277	-0.3832031	-0.0354375
15148.55327	-0.3832031	-0.036875
15148.55377	-0.3832031	-0.037375
15148.55427	-0.3832031	-0.0339375
15148.55477	-0.3832031	-0.032625
15148.55527	-0.3832031	-0.032125
15148.55577	-0.3832031	-0.03225
15148.55627	-0.3832031	-0.038625
15148.55677	-0.6222656	-0.037
15148.55727	-0.6222656	-0.0310625
15148.55777	-0.6222656	-0.0259375
15148.55827	-0.6222656	-0.02575
15148.55877	-0.6222656	-0.0303125
15148.55927	-0.6222656	-0.033
15148.55977	-0.6222656	-0.0315
15148.56027	-0.6222656	-0.02675
15148.56077	-0.6222656	-0.0191875
15148.56127	-0.6222656	-0.0093125
15148.56177	-0.4886719	0.006875
15148.56227	-0.4886719	0.0174375
15148.56277	-0.4886719	0.0226875
15148.56327	-0.4886719	0.0259375
15148.56377	-0.4886719	0.0269375
15148.56427	-0.4886719	0.0275625
15148.56477	-0.4886719	0.0261875
15148.56527	-0.4886719	0.0146875
15148.56577	-0.4886719	0.0068125
15148.56627	-0.4886719	0.003125
15148.56677	-0.3445313	-0.0015625
15148.56727	-0.3445313	-0.0066875
15148.56777	-0.3445313	-0.011
15148.56827	-0.3445313	-0.012625
15148.56877	-0.3445313	-0.007875
15148.56927	-0.3445313	-0.00275
15148.56977	-0.3445313	-0.0010625
15148.57027	-0.3445313	-0.0044375
15148.57077	-0.3445313	-0.0031875
15148.57127	-0.3445313	-0.0051875
15148.57177	-0.5414063	-0.0076875
15148.57227	-0.5414063	-0.005625
15148.57277	-0.5414063	-0.005125
15148.57327	-0.5414063	-0.002875
15148.57377	-0.5414063	-0.0003125
15148.57427	-0.5414063	-0.002125
15148.57477	-0.5414063	-0.000875
15148.57527	-0.5414063	0.0045625
15148.57577	-0.5414063	0.002875
15148.57627	-0.5414063	-0.005375
15148.57677	-0.5378906	-0.014875
15148.57727	-0.5378906	-0.01675
15148.57777	-0.5378906	-0.01275
15148.57827	-0.5378906	-0.0026875
15148.57877	-0.5378906	0.00125
15148.57927	-0.5378906	-0.00375
15148.57977	-0.5378906	-0.009875
15148.58027	-0.5378906	-0.015375
15148.58077	-0.5378906	-0.018375
15148.58127	-0.5378906	-0.014
15148.58177	-0.2707031	-0.0146875
15148.58227	-0.2707031	-0.015375
15148.58277	-0.2707031	-0.00925
15148.58327	-0.2707031	-0.004125
15148.58377	-0.2707031	0.0003125
15148.58427	-0.2707031	0.0051875
15148.58477	-0.2707031	0.0093125
15148.58527	-0.2707031	0.0089375
15148.58577	-0.2707031	0.0060625
15148.58627	-0.2707031	0.0035
15148.58677	-0.39375	-0.003125
15148.58727	-0.39375	-0.002375
15148.58777	-0.39375	0.0035625
15148.58827	-0.39375	0.0118125
15148.58877	-0.39375	0.0199375
15148.58927	-0.39375	0.0230625
15148.58977	-0.39375	0.0208125
15148.59027	-0.39375	0.024625
15148.59077	-0.39375	0.0264375
15148.59127	-0.39375	0.024625
15148.59177	-0.5765625	0.017875
15148.59227	-0.5765625	0.0059375
15148.59277	-0.5765625	-0.0061875
15148.59327	-0.5765625	-0.013625
15148.59377	-0.5765625	-0.0140625
15148.59427	-0.5765625	-0.01025
15148.59477	-0.5765625	-0.001125
15148.59527	-0.5765625	0.0108125
15148.59577	-0.5765625	0.0091875
15148.59627	-0.5765625	0.0065
15148.59677	-0.3445313	0.0074375
15148.59727	-0.3445313	0.008
15148.59777	-0.3445313	0.015625
15148.59827	-0.3445313	0.0179375
15148.59877	-0.3445313	0.014375
15148.59927	-0.3445313	0.0208125
15148.59977	-0.3445313	0.0291875
15148.60027	-0.3445313	0.0324375
15148.60077	-0.3445313	0.0315
15148.60127	-0.3445313	0.0263125
15148.60177	-0.365625	0.02075
15148.60227	-0.365625	0.0191875
15148.60277	-0.365625	0.021125
15148.60327	-0.365625	0.0173125
15148.60377	-0.365625	0.0120625
15148.60427	-0.365625	0.00925
15148.60477	-0.365625	0.002375
15148.60527	-0.365625	-0.002625
15148.60577	-0.365625	-0.00575
15148.60627	-0.365625	-0.019
15148.60677	-0.6363281	-0.026125
15148.60727	-0.6363281	-0.02875
15148.60777	-0.6363281	-0.0320625
15148.60827	-0.6363281	-0.0318125
15148.60877	-0.6363281	-0.0299375
15148.60927	-0.6363281	-0.0308125
15148.60977	-0.6363281	-0.03075
15148.61027	-0.6363281	-0.0265625
15148.61077	-0.6363281	-0.0239375
15148.61127	-0.6363281	-0.023625
15148.61177	-0.5273438	-0.0186875
15148.61227	-0.5273438	-0.0161875
15148.61277	-0.5273438	-0.0096875
15148.61327	-0.5273438	0.0001875
15148.61377	-0.5273438	0.0049375
15148.61427	-0.5273438	0.006625
15148.61477	-0.5273438	0.0095625
15148.61527	-0.5273438	0.006375
15148.61577	-0.5273438	0.0069375
15148.61627	-0.5273438	0.0105
15148.61677	-0.3585938	0.0081875
15148.61727	-0.3585938	0.0026875
15148.61777	-0.3585938	-0.0015
15148.61827	-0.3585938	-0.001625
15148.61877	-0.3585938	0.0021875
15148.61927	-0.3585938	0.00525
15148.61977	-0.3585938	0.003375
15148.62027	-0.3585938	-0.002875
15148.62077	-0.3585938	-0.00225
15148.62127	-0.3585938	-0.0034375
15148.62177	-0.5519531	-0.007625
15148.62227	-0.5519531	-0.01225
15148.62277	-0.5519531	-0.0208125
15148.62327	-0.5519531	-0.022375
15148.62377	-0.5519531	-0.0124375
15148.62427	-0.5519531	-0.0060625
15148.62477	-0.5519531	-0.0024375
15148.62527	-0.5519531	0.0005
15148.62577	-0.5519531	0.00275
15148.62627	-0.5519531	0.0045
15148.62677	-0.5695313	0.0031875
15148.62727	-0.5695313	-0.0020625
15148.62777	-0.5695313	-0.006625
15148.62827	-0.5695313	-0.003875
15148.62877	-0.5695313	-0.001375
15148.62927	-0.5695313	-0.003875
15148.62977	-0.5695313	-0.0056875
15148.63027	-0.5695313	-0.0076875
15148.63077	-0.5695313	-0.0081875
15148.63127	-0.5695313	-0.0015
15148.63177	-0.3796875	-0.0028125
15148.63227	-0.3796875	-0.0055625
15148.63277	-0.3796875	-0.0036875
15148.63327	-0.3796875	-0.0039375
15148.63377	-0.3796875	-0.003375
15148.63427	-0.3796875	-0.0004375
15148.63477	-0.3796875	0.0056875
15148.63527	-0.3796875	0.0106875
15148.63577	-0.3796875	0.01275
15148.63627	-0.3796875	0.011
15148.63677	-0.4992188	0.0015625
15148.63727	-0.4992188	-0.002125
15148.63777	-0.4992188	-0.001
15148.63827	-0.4992188	-0.0003125
15148.63877	-0.4992188	0.00325
15148.63927	-0.4992188	0.0070625
15148.63977	-0.4992188	0.0079375
15148.64027	-0.4992188	0.0165625
15148.64077	-0.4992188	0.021125
15148.64127	-0.4992188	0.0195625
15148.64177	-0.6117188	0.0189375
15148.64227	-0.6117188	0.018
15148.64277	-0.6117188	0.0155
15148.64327	-0.6117188	0.0143125
15148.64377	-0.6117188	0.01125
15148.64427	-0.6117188	0.0065
15148.64477	-0.6117188	-0.000375
15148.64527	-0.6117188	-0.0088125
15148.64577	-0.6117188	-0.0175625
15148.64627	-0.6117188	-0.0169375
15148.64677	-0.4113281	-0.012625
15148.64727	-0.4113281	-0.010125
15148.64777	-0.4113281	-0.0020625
15148.64827	-0.4113281	0.0056875
15148.64877	-0.4113281	0.0068125
15148.64927	-0.4113281	0.0121875
15148.64977	-0.4113281	0.017
15148.65027	-0.4113281	0.0166875
15148.65077	-0.4113281	0.0153125
15148.65127	-0.4113281	0.01375
15148.65177	-0.4464844	0.0145625
15148.65227	-0.4464844	0.017875
15148.65277	-0.4464844	0.0191875
15148.65327	-0.4464844	0.009125
15148.65377	-0.4464844	-0.0008125
15148.65427	-0.4464844	-0.0035625
15148.65477	-0.4464844	-0.006625
15148.65527	-0.4464844	-0.0069375
15148.65577	-0.4464844	-0.0058125
15148.65627	-0.4464844	-0.009625
15148.65677	-0.7347656	-0.0093125
15148.65727	-0.7347656	-0.0044375
15148.65777	-0.7347656	-0.000625
15148.65827	-0.7347656	0.002875
15148.65877	-0.7347656	0.008375
15148.65927	-0.7347656	0.010375
15148.65977	-0.7347656	0.0094375
15148.66027	-0.7347656	0.009
15148.66077	-0.7347656	0.005875
15148.66127	-0.7347656	0.00025
15148.66177	-0.6539063	-0.0023125
15148.66227	-0.6539063	-0.0114375
15148.66277	-0.6539063	-0.021125
15148.66327	-0.6539063	-0.0216875
15148.66377	-0.6539063	-0.0145625
15148.66427	-0.6539063	-0.0046875
15148.66477	-0.6539063	0.0054375
15148.66527	-0.6539063	0.0025625
15148.66577	-0.6539063	-0.0001875
15148.66627	-0.6539063	-0.000125
15148.66677	-0.45	-0.00275
15148.66727	-0.45	-0.0034375
15148.66777	-0.45	-0.001375
15148.66827	-0.45	-0.0010625
15148.66877	-0.45	-0.0015
15148.66927	-0.45	-0.0035625
15148.66977	-0.45	-0.00825
15148.67027	-0.45	-0.01725
15148.67077	-0.45	-0.015625
15148.67127	-0.45	-0.0160625
15148.67177	-0.6503906	-0.0225625
15148.67227	-0.6503906	-0.025625
15148.67277	-0.6503906	-0.02825
15148.67327	-0.6503906	-0.027625
15148.67377	-0.6503906	-0.0213125
15148.67427	-0.6503906	-0.0210625
15148.67477	-0.6503906	-0.020625
15148.67527	-0.6503906	-0.0144375
15148.67577	-0.6503906	-0.0083125
15148.67627	-0.6503906	-0.0040625
15148.67677	-0.7171875	-0.001875
15148.67727	-0.7171875	-0.002625
15148.67777	-0.7171875	-0.004125
15148.67827	-0.7171875	0.00275
15148.67877	-0.7171875	0.0081875
15148.67927	-0.7171875	0.0033125
15148.67977	-0.7171875	-0.001
15148.68027	-0.7171875	-0.004125
15148.68077	-0.7171875	-0.0080625
15148.68127	-0.7171875	-0.00125
15148.68177	-0.4535156	-0.003625
15148.68227	-0.4535156	-0.0114375
15148.68277	-0.4535156	-0.006875
15148.68327	-0.4535156	-0.0003125
15148.68377	-0.4535156	0.001375
15148.68427	-0.4535156	-0.000125
15148.68477	-0.4535156	-0.007125
15148.68527	-0.4535156	-0.0135
15148.68577	-0.4535156	-0.017625
15148.68627	-0.4535156	-0.019375
15148.68677	-0.5519531	-0.02575
15148.68727	-0.5519531	-0.0228125
15148.68777	-0.5519531	-0.0120625
15148.68827	-0.5519531	-0.0071875
15148.68877	-0.5519531	-0.0021875
15148.68927	-0.5519531	0.0039375
15148.68977	-0.5519531	0.0046875
15148.69027	-0.5519531	0.015375
15148.69077	-0.5519531	0.02175
15148.69127	-0.5519531	0.0216875
15148.69177	-0.7242188	0.0244375
15148.69227	-0.7242188	0.027
15148.69277	-0.7242188	0.0251875
15148.69327	-0.7242188	0.019
15148.69377	-0.7242188	0.0119375
15148.69427	-0.7242188	0.0053125
15148.69477	-0.7242188	0.004375
15148.69527	-0.7242188	0.011
15148.69577	-0.7242188	0.008875
15148.69627	-0.7242188	0.0075
15148.69677	-0.4921875	0.008
15148.69727	-0.4921875	0.0058125
15148.69777	-0.4921875	0.0109375
15148.69827	-0.4921875	0.0191875
15148.69877	-0.4921875	0.01825
15148.69927	-0.4921875	0.0205
15148.69977	-0.4921875	0.0219375
15148.70027	-0.4921875	0.021375
15148.70077	-0.4921875	0.02525
15148.70127	-0.4921875	0.025875
15148.70177	-0.4992188	0.02
15148.70227	-0.4992188	0.0099375
15148.70277	-0.4992188	-0.0028125
15148.70327	-0.4992188	-0.0156875
15148.70377	-0.4992188	-0.022375
15148.70427	-0.4992188	-0.015875
15148.70477	-0.4992188	-0.0143125
15148.70527	-0.4992188	-0.01625
15148.70577	-0.4992188	-0.0078125
15148.70627	-0.4992188	-0.00775
15148.70677	-0.7382813	-0.0105625
15148.70727	-0.7382813	-0.0101875
15148.70777	-0.7382813	-0.013375
15148.70827	-0.7382813	-0.013375
15148.70877	-0.7382813	-0.011875
15148.70927	-0.7382813	-0.0135
15148.70977	-0.7382813	-0.016
15148.71027	-0.7382813	-0.016625
15148.71077	-0.7382813	-0.01625
15148.71127	-0.7382813	-0.016
15148.71177	-0.5835938	-0.0086875
15148.71227	-0.5835938	-0.006
15148.71277	-0.5835938	-0.0088125
15148.71327	-0.5835938	-0.0074375
15148.71377	-0.5835938	-0.0075
15148.71427	-0.5835938	-0.00725
15148.71477	-0.5835938	0.00025
15148.71527	-0.5835938	-0.0041875
15148.71577	-0.5835938	-0.0071875
15148.71627	-0.5835938	-0.00425
15148.71677	-0.3691406	-0.006875
15148.71727	-0.3691406	-0.015875
15148.71777	-0.3691406	-0.0235
15148.71827	-0.3691406	-0.02475
15148.71877	-0.3691406	-0.0206875
15148.71927	-0.3691406	-0.016375
15148.71977	-0.3691406	-0.016875
15148.72027	-0.3691406	-0.022625
15148.72077	-0.3691406	-0.016125
15148.72127	-0.3691406	-0.0085
15148.72177	-0.5871094	-0.006125
15148.72227	-0.5871094	-0.003625
15148.72277	-0.5871094	-0.00925
15148.72327	-0.5871094	-0.0191875
15148.72377	-0.5871094	-0.0176875
15148.72427	-0.5871094	-0.01375
15148.72477	-0.5871094	-0.0075625
15148.72527	-0.5871094	0.0040625
15148.72577	-0.5871094	0.011
15148.72627	-0.5871094	0.01275
15148.72677	-0.61875	0.012875
15148.72727	-0.61875	0.0115
15148.72777	-0.61875	0.007875
15148.72827	-0.61875	0.0061875
15148.72877	-0.61875	0.0054375
15148.72927	-0.61875	-0.00425
15148.72977	-0.61875	-0.002125
15148.73027	-0.61875	0.0123125
15148.73077	-0.61875	0.0221875
15148.73127	-0.61875	0.031
15148.73177	-0.3375	0.024625
15148.73227	-0.3375	0.0161875
15148.73277	-0.3375	0.0185
15148.73327	-0.3375	0.021
15148.73377	-0.3375	0.01875
15148.73427	-0.3375	0.0190625
15148.73477	-0.3375	0.0188125
15148.73527	-0.3375	0.0196875
15148.73577	-0.3375	0.0224375
15148.73627	-0.3375	0.02775
15148.73677	-0.4957031	0.0235
15148.73727	-0.4957031	0.0196875
15148.73777	-0.4957031	0.02025
15148.73827	-0.4957031	0.0175625
15148.73877	-0.4957031	0.0166875
15148.73927	-0.4957031	0.0158125
15148.73977	-0.4957031	0.004
15148.74027	-0.4957031	-6.25E-05
15148.74077	-0.4957031	-0.00175
15148.74127	-0.4957031	-0.0069375
15148.74177	-0.6890625	-0.0130625
15148.74227	-0.6890625	-0.0215625
15148.74277	-0.6890625	-0.02975
15148.74327	-0.6890625	-0.0345625
15148.74377	-0.6890625	-0.03675
15148.74427	-0.6890625	-0.0370625
15148.74477	-0.6890625	-0.0324375
15148.74527	-0.6890625	-0.0213125
15148.74577	-0.6890625	-0.022
15148.74627	-0.6890625	-0.0244375
15148.74677	-0.4710938	-0.023375
15148.74727	-0.4710938	-0.0253125
15148.74777	-0.4710938	-0.0208125
15148.74827	-0.4710938	-0.0191875
15148.74877	-0.4710938	-0.031125
15148.74927	-0.4710938	-0.0341875
15148.74977	-0.4710938	-0.0266875
15148.75027	-0.4710938	-0.0224375
15148.75077	-0.4710938	-0.0196875
15148.75127	-0.4710938	-0.015125
15148.75177	-0.4921875	-0.0045625
15148.75227	-0.4921875	0.0063125
15148.75277	-0.4921875	0.0135
15148.75327	-0.4921875	0.0123125
15148.75377	-0.4921875	0.0083125
15148.75427	-0.4921875	0.012875
15148.75477	-0.4921875	0.0125
15148.75527	-0.4921875	0.011375
15148.75577	-0.4921875	0.014
15148.75627	-0.4921875	0.0065
15148.75677	-0.7699219	0.0076875
15148.75727	-0.7699219	0.019125
15148.75777	-0.7699219	0.0241875
15148.75827	-0.7699219	0.027375
15148.75877	-0.7699219	0.030625
15148.75927	-0.7699219	0.031625
15148.75977	-0.7699219	0.0300625
15148.76027	-0.7699219	0.0311875
15148.76077	-0.7699219	0.0346875
15148.76127	-0.7699219	0.036875
15148.76177	-0.6433594	0.0419375
15148.76227	-0.6433594	0.0376875
15148.76277	-0.6433594	0.0284375
15148.76327	-0.6433594	0.0246875
15148.76377	-0.6433594	0.018125
15148.76427	-0.6433594	0.007625
15148.76477	-0.6433594	0.0060625
15148.76527	-0.6433594	0
15148.76577	-0.6433594	-0.0009375
15148.76627	-0.6433594	0.00525
15148.76677	-0.4570313	0.00525
15148.76727	-0.4570313	0.00175
15148.76777	-0.4570313	0.004875
15148.76827	-0.4570313	0.0100625
15148.76877	-0.4570313	0.012
15148.76927	-0.4570313	0.0108125
15148.76977	-0.4570313	0.004
15148.77027	-0.4570313	-0.007375
15148.77077	-0.4570313	-0.0025625
15148.77127	-0.4570313	0.0055625
15148.77177	-0.6855469	0.0039375
15148.77227	-0.6855469	0.00175
15148.77277	-0.6855469	0
15148.77327	-0.6855469	-0.0030625
15148.77377	-0.6855469	-6.25E-05
15148.77427	-0.6855469	-0.001625
15148.77477	-0.6855469	-0.0029375
15148.77527	-0.6855469	-0.0013125
15148.77577	-0.6855469	-0.002625
15148.77627	-0.6855469	-0.0070625
15148.77677	-0.6855469	-0.0125
15148.77727	-0.6855469	-0.015375
15148.77777	-0.6855469	-0.012375
15148.77827	-0.6855469	-0.0009375
15148.77877	-0.6855469	0.0066875
15148.77927	-0.6855469	-0.0030625
15148.77977	-0.6855469	-0.0133125
15148.78027	-0.6855469	-0.0131875
15148.78077	-0.6855469	-0.00775
15148.78127	-0.6855469	0.0089375
15148.78177	-0.4324219	0.011
15148.78227	-0.4324219	-0.0009375
15148.78277	-0.4324219	-0.007375
15148.78327	-0.4324219	-0.0100625
15148.78377	-0.4324219	-0.01075
15148.78427	-0.4324219	-0.006375
15148.78477	-0.4324219	-0.001
15148.78527	-0.4324219	0.0054375
15148.78577	-0.4324219	0.009625
15148.78627	-0.4324219	0.0145
15148.78677	-0.6082031	0.01275
15148.78727	-0.6082031	0.0185
15148.78777	-0.6082031	0.02725
15148.78827	-0.6082031	0.025
15148.78877	-0.6082031	0.0188125
15148.78927	-0.6082031	0.011875
15148.78977	-0.6082031	-0.00025
15148.79027	-0.6082031	0
15148.79077	-0.6082031	-0.000375
15148.79127	-0.6082031	-0.0059375
15148.79177	-0.7804688	-0.0065625
15148.79227	-0.7804688	-0.0036875
15148.79277	-0.7804688	-0.0013125
15148.79327	-0.7804688	-0.0001875
15148.79377	-0.7804688	-0.0013125
15148.79427	-0.7804688	-0.0055625
15148.79477	-0.7804688	-0.00775
15148.79527	-0.7804688	-0.000625
15148.79577	-0.7804688	-0.0009375
15148.79627	-0.7804688	-0.0045
15148.79677	-0.5027344	-0.0059375
15148.79727	-0.5027344	-0.00875
15148.79777	-0.5027344	-0.0068125
15148.79827	-0.5027344	-0.0066875
15148.79877	-0.5027344	-0.0185
15148.79927	-0.5027344	-0.02075
15148.79977	-0.5027344	-0.0145
15148.80027	-0.5027344	-0.012625
15148.80077	-0.5027344	-0.0098125
15148.80127	-0.5027344	-0.002875
15148.80177	-0.534375	0.0054375
15148.80227	-0.534375	0.011
15148.80277	-0.534375	0.014125
15148.80327	-0.534375	0.0141875
15148.80377	-0.534375	0.0149375
15148.80427	-0.534375	0.0211875
15148.80477	-0.534375	0.019875
15148.80527	-0.534375	0.016125
15148.80577	-0.534375	0.0149375
15148.80627	-0.534375	0.007625
15148.80677	-0.9210938	0.0104375
15148.80727	-0.9210938	0.0159375
15148.80777	-0.9210938	0.006375
15148.80827	-0.9210938	-0.0059375
15148.80877	-0.9210938	-0.0115
15148.80927	-0.9210938	-0.0155
15148.80977	-0.9210938	-0.0135
15148.81027	-0.9210938	-0.012
15148.81077	-0.9210938	-0.01725
15148.81127	-0.9210938	-0.019125
15148.81177	-0.8613281	-0.0041875
15148.81227	-0.8613281	0.009125
15148.81277	-0.8613281	0.0116875
15148.81327	-0.8613281	0.0123125
15148.81377	-0.8613281	0.0073125
15148.81427	-0.8613281	0.0024375
15148.81477	-0.8613281	0.0075
15148.81527	-0.8613281	0.00525
15148.81577	-0.8613281	0.00075
15148.81627	-0.8613281	-0.0024375
15148.81677	-0.6539063	-0.0116875
15148.81727	-0.6539063	-0.0143125
15148.81777	-0.6539063	-0.009875
15148.81827	-0.6539063	-0.005125
15148.81877	-0.6539063	-0.002375
15148.81927	-0.6539063	0.002375
15148.81977	-0.6539063	0.006375
15148.82027	-0.6539063	0.0031875
15148.82077	-0.6539063	0.007125
15148.82127	-0.6539063	0.00775
15148.82177	-0.6433594	0.0056875
15148.82227	-0.6433594	0.0133125
15148.82277	-0.6433594	0.0234375
15148.82327	-0.6433594	0.03175
15148.82377	-0.6433594	0.0469375
15148.82427	-0.6433594	0.051625
15148.82477	-0.6433594	0.052
15148.82527	-0.6433594	0.055625
15148.82577	-0.6433594	0.057875
15148.82627	-0.6433594	0.06
15148.82677	-0.253125	0.061875
15148.82727	-0.253125	0.06425
15148.82777	-0.253125	0.066875
15148.82827	-0.253125	0.0754375
15148.82877	-0.253125	0.0799375
15148.82927	-0.253125	0.064625
15148.82977	-0.253125	0.046125
15148.83027	-0.253125	0.0289375
15148.83077	-0.253125	0.0141875
15148.83127	-0.253125	0.016875
15148.83177	0.5554688	0.024875
15148.83227	0.5554688	0.030875
15148.83277	0.5554688	0.0378125
15148.83327	0.5554688	0.032625
15148.83377	0.5554688	0.015
15148.83427	0.5554688	-0.001875
15148.83477	0.5554688	-0.0141875
15148.83527	0.5554688	-0.0209375
15148.83577	0.5554688	-0.0270625
15148.83627	0.5554688	-0.0323125
15148.83677	0.9808594	-0.0375625
15148.83727	0.9808594	-0.0351875
15148.83777	0.9808594	-0.0305625
15148.83827	0.9808594	-0.0258125
15148.83877	0.9808594	-0.013
15148.83927	0.9808594	-0.0005
15148.83977	0.9808594	-0.0026875
15148.84027	0.9808594	0.0044375
15148.84077	0.9808594	0.012375
15148.84127	0.9808594	0.0166875
15148.84177	1.167188	0.0281875
15148.84227	1.167188	0.03775
15148.84277	1.167188	0.0400625
15148.84327	1.167188	0.038125
15148.84377	1.167188	0.03525
15148.84427	1.167188	0.0343125
15148.84477	1.167188	0.029125
15148.84527	1.167188	0.031375
15148.84577	1.167188	0.026625
15148.84627	1.167188	0.0114375
15148.84677	1.606641	-0.0066875
15148.84727	1.606641	-0.0326875
15148.84777	1.606641	-0.060875
15148.84827	1.606641	-0.081625
15148.84877	1.606641	-0.0968125
15148.84927	1.606641	-0.092625
15148.84977	1.606641	-0.077625
15148.85027	1.606641	-0.0724375
15148.85077	1.606641	-0.0711875
15148.85127	1.606641	-0.067875
15148.85177	1.065234	-0.0660625
15148.85227	1.065234	-0.0731875
15148.85277	1.065234	-0.0865
15148.85327	1.065234	-0.0985
15148.85377	1.065234	-0.1098125
15148.85427	1.065234	-0.106
15148.85477	1.065234	-0.108125
15148.85527	1.065234	-0.1133125
15148.85577	1.065234	-0.114875
15148.85627	1.065234	-0.1309375
15148.85677	-0.05976563	-0.14175
15148.85727	-0.05976563	-0.13825
15148.85777	-0.05976563	-0.133375
15148.85827	-0.05976563	-0.1235625
15148.85877	-0.05976563	-0.1058125
15148.85927	-0.05976563	-0.0868125
15148.85977	-0.05976563	-0.070875
15148.86027	-0.05976563	-0.0531875
15148.86077	-0.05976563	-0.0305
15148.86127	-0.05976563	-0.006
15148.86177	-0.3726563	0.0155
15148.86227	-0.3726563	0.0295
15148.86277	-0.3726563	0.0369375
15148.86327	-0.3726563	0.0485625
15148.86377	-0.3726563	0.059125
15148.86427	-0.3726563	0.0671875
15148.86477	-0.3726563	0.086
15148.86527	-0.3726563	0.0905625
15148.86577	-0.3726563	0.0885625
15148.86627	-0.3726563	0.09075
15148.86677	-0.2285156	0.0930625
15148.86727	-0.2285156	0.0954375
15148.86777	-0.2285156	0.0970625
15148.86827	-0.2285156	0.0959375
15148.86877	-0.2285156	0.095375
15148.86927	-0.2285156	0.0990625
15148.86977	-0.2285156	0.103
15148.87027	-0.2285156	0.09825
15148.87077	-0.2285156	0.10125
15148.87127	-0.2285156	0.1030625
15148.87177	-0.3691406	0.099375
15148.87227	-0.3691406	0.0933125
15148.87277	-0.3691406	0.0808125
15148.87327	-0.3691406	0.0671875
15148.87377	-0.3691406	0.0658125
15148.87427	-0.3691406	0.0611875
15148.87477	-0.3691406	0.04925
15148.87527	-0.3691406	0.0388125
15148.87577	-0.3691406	0.0298125
15148.87627	-0.3691406	0.0244375
15148.87677	-0.4429688	0.01825
15148.87727	-0.4429688	0.011375
15148.87777	-0.4429688	0.00225
15148.87827	-0.4429688	-0.004375
15148.87877	-0.4429688	-0.0060625
15148.87927	-0.4429688	-0.0149375
15148.87977	-0.4429688	-0.0190625
15148.88027	-0.4429688	-0.0215
15148.88077	-0.4429688	-0.0275625
15148.88127	-0.4429688	-0.0218125
15148.88177	-0.2355469	-0.017375
15148.88227	-0.2355469	-0.016875
15148.88277	-0.2355469	-0.0014375
15148.88327	-0.2355469	0.01675
15148.88377	-0.2355469	0.0249375
15148.88427	-0.2355469	0.0301875
15148.88477	-0.2355469	0.036125
15148.88527	-0.2355469	0.046125
15148.88577	-0.2355469	0.0535625
15148.88627	-0.2355469	0.0558125
15148.88677	-0.4148438	0.0475
15148.88727	-0.4148438	0.0390625
15148.88777	-0.4148438	0.038375
15148.88827	-0.4148438	0.0354375
15148.88877	-0.4148438	0.0373125
15148.88927	-0.4148438	0.0384375
15148.88977	-0.4148438	0.020875
15148.89027	-0.4148438	0.006625
15148.89077	-0.4148438	-0.004
15148.89127	-0.4148438	-0.0174375
15148.89177	-0.646875	-0.022
15148.89227	-0.646875	-0.0194375
15148.89277	-0.646875	-0.0213125
15148.89327	-0.646875	-0.0294375
15148.89377	-0.646875	-0.040375
15148.89427	-0.646875	-0.048375
15148.89477	-0.646875	-0.05075
15148.89527	-0.646875	-0.0454375
15148.89577	-0.646875	-0.0456875
15148.89627	-0.646875	-0.0438125
15148.89677	-0.4570313	-0.0375
15148.89727	-0.4570313	-0.0344375
15148.89777	-0.4570313	-0.030625
15148.89827	-0.4570313	-0.021
15148.89877	-0.4570313	-0.022
15148.89927	-0.4570313	-0.0185625
15148.89977	-0.4570313	-0.012
15148.90027	-0.4570313	-0.01225
15148.90077	-0.4570313	-0.015375
15148.90127	-0.4570313	-0.0226875
15148.90177	-0.3972656	-0.030625
15148.90227	-0.3972656	-0.0368125
15148.90277	-0.3972656	-0.0413125
15148.90327	-0.3972656	-0.0409375
15148.90377	-0.3972656	-0.034875
15148.90427	-0.3972656	-0.0153125
15148.90477	-0.3972656	-0.0046875
15148.90527	-0.3972656	-0.00275
15148.90577	-0.3972656	0.004625
15148.90627	-0.3972656	0.0083125
15148.90677	-0.6820313	0.0135625
15148.90727	-0.6820313	0.0235
15148.90777	-0.6820313	0.025375
15148.90827	-0.6820313	0.0248125
15148.90877	-0.6820313	0.027
15148.90927	-0.6820313	0.0301875
15148.90977	-0.6820313	0.03525
15148.91027	-0.6820313	0.0390625
15148.91077	-0.6820313	0.0358125
15148.91127	-0.6820313	0.027
15148.91177	-0.5871094	0.0248125
15148.91227	-0.5871094	0.0239375
15148.91277	-0.5871094	0.01675
15148.91327	-0.5871094	0.0116875
15148.91377	-0.5871094	0.00525
15148.91427	-0.5871094	-0.006625
15148.91477	-0.5871094	-0.00775
15148.91527	-0.5871094	-0.010875
15148.91577	-0.5871094	-0.0063125
15148.91627	-0.5871094	0.0085625
15148.91677	-0.3867188	0.0148125
15148.91727	-0.3867188	0.013875
15148.91777	-0.3867188	0.01525
15148.91827	-0.3867188	0.0164375
15148.91877	-0.3867188	0.0146875
15148.91927	-0.3867188	0.0109375
15148.91977	-0.3867188	0.0111875
15148.92027	-0.3867188	0.0091875
15148.92077	-0.3867188	0.0138125
15148.92127	-0.3867188	0.0126875
15148.92177	-0.6644531	0.0035
15148.92227	-0.6644531	0.0044375
15148.92277	-0.6644531	0.0069375
15148.92327	-0.6644531	0.0041875
15148.92377	-0.6644531	0.005875
15148.92427	-0.6644531	0.0039375
15148.92477	-0.6644531	0.001375
15148.92527	-0.6644531	0.0011875
15148.92577	-0.6644531	0.0005625
15148.92627	-0.6644531	-0.00025
15148.92677	-0.6890625	0.00025
15148.92727	-0.6890625	0.0033125
15148.92777	-0.6890625	0.01
15148.92827	-0.6890625	0.0171875
15148.92877	-0.6890625	0.017
15148.92927	-0.6890625	0.00425
15148.92977	-0.6890625	-0.00275
15148.93027	-0.6890625	-0.002875
15148.93077	-0.6890625	-0.0005625
15148.93127	-0.6890625	0.00425
15148.93177	-0.4429688	-0.00025
15148.93227	-0.4429688	-0.010625
15148.93277	-0.4429688	-0.0138125
15148.93327	-0.4429688	-0.0155625
15148.93377	-0.4429688	-0.0166875
15148.93427	-0.4429688	-0.0103125
15148.93477	-0.4429688	-0.004125
15148.93527	-0.4429688	6.25e-05
15148.93577	-0.4429688	0.0014375
15148.93627	-0.4429688	0.0035
15148.93677	-0.5871094	-0.001625
15148.93727	-0.5871094	-0.0115625
15148.93777	-0.5871094	-0.0194375
15148.93827	-0.5871094	-0.025625
15148.93877	-0.5871094	-0.0243125
15148.93927	-0.5871094	-0.0199375
15148.93977	-0.5871094	-0.027
15148.94027	-0.5871094	-0.026375
15148.94077	-0.5871094	-0.0225625
15148.94127	-0.5871094	-0.0213125
15148.94177	-0.8121094	-0.0166875
15148.94227	-0.8121094	-0.013125
15148.94277	-0.8121094	-0.011625
15148.94327	-0.8121094	-0.0088125
15148.94377	-0.8121094	-0.00525
15148.94427	-0.8121094	-0.0051875
15148.94477	-0.8121094	-0.0088125
15148.94527	-0.8121094	-0.007875
15148.94577	-0.8121094	-0.00975
15148.94627	-0.8121094	-0.0110625
15148.94677	-0.5308594	-0.0095625
15148.94727	-0.5308594	-0.014625
15148.94777	-0.5308594	-0.0204375
15148.94827	-0.5308594	-0.0238125
15148.94877	-0.5308594	-0.0319375
15148.94927	-0.5308594	-0.029625
15148.94977	-0.5308594	-0.01575
15148.95027	-0.5308594	-0.004
15148.95077	-0.5308594	0.007
15148.95127	-0.5308594	0.01025
15148.95177	-0.50625	0.0078125
15148.95227	-0.50625	0.0060625
15148.95277	-0.50625	0.007
15148.95327	-0.50625	0.008875
15148.95377	-0.50625	0.0100625
15148.95427	-0.50625	0.013125
15148.95477	-0.50625	0.0096875
15148.95527	-0.50625	0.0055
15148.95577	-0.50625	0.006625
15148.95627	-0.50625	0.004875
15148.95677	-0.7804688	0.0078125
15148.95727	-0.7804688	0.0168125
15148.95777	-0.7804688	0.0218125
15148.95827	-0.7804688	0.0225
15148.95877	-0.7804688	0.0250625
15148.95927	-0.7804688	0.0256875
15148.95977	-0.7804688	0.02775
15148.96027	-0.7804688	0.029875
15148.96077	-0.7804688	0.028625
15148.96127	-0.7804688	0.023875
15148.96177	-0.5871094	0.02225
15148.96227	-0.5871094	0.0225
15148.96277	-0.5871094	0.0208125
15148.96327	-0.5871094	0.0233125
15148.96377	-0.5871094	0.0224375
15148.96427	-0.5871094	0.01675
15148.96477	-0.5871094	0.0175
15148.96527	-0.5871094	0.01275
15148.96577	-0.5871094	0.0135
15148.96627	-0.5871094	0.02075
15148.96677	-0.4570313	0.02375
15148.96727	-0.4570313	0.0190625
15148.96777	-0.4570313	0.0129375
15148.96827	-0.4570313	0.013875
15148.96877	-0.4570313	0.0184375
15148.96927	-0.4570313	0.0141875
15148.96977	-0.4570313	0.0028125
15148.97027	-0.4570313	-0.0076875
15148.97077	-0.4570313	-0.00175
15148.97127	-0.4570313	0.009
15148.97177	-0.6996094	0.0154375
15148.97227	-0.6996094	0.019125
15148.97277	-0.6996094	0.018375
15148.97327	-0.6996094	0.0136875
15148.97377	-0.6996094	0.0135
15148.97427	-0.6996094	0.0073125
15148.97477	-0.6996094	-0.0060625
15148.97527	-0.6996094	-0.016125
15148.97577	-0.6996094	-0.0204375
15148.97627	-0.6996094	-0.0175625
15148.97677	-0.6257813	-0.0138125
15148.97727	-0.6257813	-0.0138125
15148.97777	-0.6257813	-0.0153125
15148.97827	-0.6257813	-0.00925
15148.97877	-0.6257813	0.006875
15148.97927	-0.6257813	0.011875
15148.97977	-0.6257813	0.0109375
15148.98027	-0.6257813	0.00725
15148.98077	-0.6257813	0.0023125
15148.98127	-0.6257813	0.003875
15148.98177	-0.2988281	0.0030625
15148.98227	-0.2988281	-0.00375
15148.98277	-0.2988281	-0.0034375
15148.98327	-0.2988281	-0.0055
15148.98377	-0.2988281	-0.01175
15148.98427	-0.2988281	-0.0171875
15148.98477	-0.2988281	-0.0209375
15148.98527	-0.2988281	-0.021125
15148.98577	-0.2988281	-0.0186875
15148.98627	-0.2988281	-0.011875
15148.98677	-0.5097656	-0.0119375
15148.98727	-0.5097656	-0.013125
15148.98777	-0.5097656	-0.0125625
15148.98827	-0.5097656	-0.0109375
15148.98877	-0.5097656	-0.00575
15148.98927	-0.5097656	0.00175
15148.98977	-0.5097656	0.0013125
15148.99027	-0.5097656	0.0008125
15148.99077	-0.5097656	-0.00275
15148.99127	-0.5097656	-0.009375
15148.99177	-0.675	-0.012625
15148.99227	-0.675	-0.01525
15148.99277	-0.675	-0.0215
15148.99327	-0.675	-0.0259375
15148.99377	-0.675	-0.0236875
15148.99427	-0.675	-0.0174375
15148.99477	-0.675	-0.009875
15148.99527	-0.675	0.000625
15148.99577	-0.675	0.006625
15148.99627	-0.675	0.016125
15148.99677	-0.4007813	0.027875
15148.99727	-0.4007813	0.0353125
15148.99777	-0.4007813	0.040125
15148.99827	-0.4007813	0.0450625
15148.99877	-0.4007813	0.03925
15148.99927	-0.4007813	0.0409375
15148.99977	-0.4007813	0.0468125
15149.00027	-0.4007813	0.045125
15149.00077	-0.4007813	0.038125
15149.00127	-0.4007813	0.026875
15149.00177	-0.4042969	0.018375
15149.00227	-0.4042969	0.01275
15149.00277	-0.4042969	0.01125
15149.00327	-0.4042969	0.00975
15149.00377	-0.4042969	0.0006875
15149.00427	-0.4042969	-0.0054375
15149.00477	-0.4042969	-0.0139375
15149.00527	-0.4042969	-0.0209375
15149.00577	-0.4042969	-0.0198125
15149.00627	-0.4042969	-0.02325
15149.00677	-0.6257813	-0.0220625
15149.00727	-0.6257813	-0.0118125
15149.00777	-0.6257813	-0.002375
15149.00827	-0.6257813	0.007375
15149.00877	-0.6257813	0.0176875
15149.00927	-0.6257813	0.0185
15149.00977	-0.6257813	0.01725
15149.01027	-0.6257813	0.0191875
15149.01077	-0.6257813	0.0229375
15149.01127	-0.6257813	0.0206875
15149.01177	-0.4289063	0.0180625
15149.01227	-0.4289063	0.0141875
15149.01277	-0.4289063	0.007875
15149.01327	-0.4289063	0.0070625
15149.01377	-0.4289063	0.0078125
15149.01427	-0.4289063	0.0050625
15149.01477	-0.4289063	0.0039375
15149.01527	-0.4289063	-0.0024375
15149.01577	-0.4289063	-0.00575
15149.01627	-0.4289063	0.00025
15149.01677	-0.2214844	0.00675
15149.01727	-0.2214844	0.009875
15149.01777	-0.2214844	0.0098125
15149.01827	-0.2214844	0.012625
15149.01877	-0.2214844	0.0168125
15149.01927	-0.2214844	0.018
15149.01977	-0.2214844	0.020375
15149.02027	-0.2214844	0.020625
15149.02077	-0.2214844	0.0289375
15149.02127	-0.2214844	0.0370625
15149.02177	-0.5027344	0.04075
15149.02227	-0.5027344	0.0455625
15149.02277	-0.5027344	0.0486875
15149.02327	-0.5027344	0.0455625
15149.02377	-0.5027344	0.050625
15149.02427	-0.5027344	0.055
15149.02477	-0.5027344	0.0535625
15149.02527	-0.5027344	0.0511875
15149.02577	-0.5027344	0.043875
15149.02627	-0.5027344	0.036
15149.02677	-0.5203125	0.0276875
15149.02727	-0.5203125	0.0198125
15149.02777	-0.5203125	0.0136875
15149.02827	-0.5203125	0.0089375
15149.02877	-0.5203125	0.009
15149.02927	-0.5203125	0.006
15149.02977	-0.5203125	0.004
15149.03027	-0.5203125	-0.0029375
15149.03077	-0.5203125	-0.0149375
15149.03127	-0.5203125	-0.01975
15149.03177	-0.2601563	-0.019125
15149.03227	-0.2601563	-0.019375
15149.03277	-0.2601563	-0.017375
15149.03327	-0.2601563	-0.016
15149.03377	-0.2601563	-0.016625
15149.03427	-0.2601563	-0.0165
15149.03477	-0.2601563	-0.0125
15149.03527	-0.2601563	-0.0019375
15149.03577	-0.2601563	0.0061875
15149.03627	-0.2601563	0.0048125
15149.03677	-0.4464844	-0.0055
15149.03727	-0.4464844	-0.0175
15149.03777	-0.4464844	-0.0165
15149.03827	-0.4464844	-0.0139375
15149.03877	-0.4464844	-0.0079375
15149.03927	-0.4464844	0.002125
15149.03977	-0.4464844	0.00325
15149.04027	-0.4464844	0.0101875
15149.04077	-0.4464844	0.0175
15149.04127	-0.4464844	0.017875
15149.04177	-0.6609375	0.0205625
15149.04227	-0.6609375	0.0245
15149.04277	-0.6609375	0.0248125
15149.04327	-0.6609375	0.021375
15149.04377	-0.6609375	0.0155
15149.04427	-0.6609375	0.0084375
15149.04477	-0.6609375	0.0018125
15149.04527	-0.6609375	0.0051875
15149.04577	-0.6609375	0.0115
15149.04627	-0.6609375	0.0204375
15149.04677	-0.4078125	0.0275
15149.04727	-0.4078125	0.0276875
15149.04777	-0.4078125	0.03025
15149.04827	-0.4078125	0.0369375
15149.04877	-0.4078125	0.028125
15149.04927	-0.4078125	0.018125
15149.04977	-0.4078125	0.0120625
15149.05027	-0.4078125	0.0063125
15149.05077	-0.4078125	0.0089375
15149.05127	-0.4078125	0.020125
15149.05177	-0.4289063	0.03075
15149.05227	-0.4289063	0.03425
15149.05277	-0.4289063	0.033375
15149.05327	-0.4289063	0.0268125
15149.05377	-0.4289063	0.0128125
15149.05427	-0.4289063	0.00875
15149.05477	-0.4289063	0.0088125
15149.05527	-0.4289063	0.008875
15149.05577	-0.4289063	0.0113125
15149.05627	-0.4289063	0.0106875
15149.05677	-0.7101563	0.0075
15149.05727	-0.7101563	0.0095
15149.05777	-0.7101563	0.0095
15149.05827	-0.7101563	0.0100625
15149.05877	-0.7101563	0.00775
15149.05927	-0.7101563	-0.0019375
15149.05977	-0.7101563	-0.010125
15149.06027	-0.7101563	-0.0124375
15149.06077	-0.7101563	-0.009625
15149.06127	-0.7101563	-0.009125
15149.06177	-0.4992188	-0.008625
15149.06227	-0.4992188	-0.0093125
15149.06277	-0.4992188	-0.0145
15149.06327	-0.4992188	-0.0144375
15149.06377	-0.4992188	-0.0110625
15149.06427	-0.4992188	-0.0071875
15149.06477	-0.4992188	0.0015
15149.06527	-0.4992188	-0.000875
15149.06577	-0.4992188	-0.0078125
15149.06627	-0.4992188	-0.005625
15149.06677	-0.3480469	-0.002875
15149.06727	-0.3480469	-0.0014375
15149.06777	-0.3480469	0.004875
15149.06827	-0.3480469	0.013125
15149.06877	-0.3480469	0.0245
15149.06927	-0.3480469	0.037125
15149.06977	-0.3480469	0.04575
15149.07027	-0.3480469	0.0461875
15149.07077	-0.3480469	0.0448125
15149.07127	-0.3480469	0.039375
15149.07177	-0.590625	0.029
15149.07227	-0.590625	0.0214375
15149.07277	-0.590625	0.01625
15149.07327	-0.590625	0.0070625
15149.07377	-0.590625	0.00475
15149.07427	-0.590625	-0.0034375
15149.07477	-0.590625	-0.017
15149.07527	-0.590625	-0.0244375
15149.07577	-0.590625	-0.023125
15149.07627	-0.590625	-0.018125
15149.07677	-0.5378906	-0.0151875
15149.07727	-0.5378906	-0.014
15149.07777	-0.5378906	-0.0085
15149.07827	-0.5378906	0.0030625
15149.07877	-0.5378906	0.0210625
15149.07927	-0.5378906	0.0290625
15149.07977	-0.5378906	0.0365625
15149.08027	-0.5378906	0.0478125
15149.08077	-0.5378906	0.053
15149.08127	-0.5378906	0.06075
15149.08177	-0.3164063	0.068875
15149.08227	-0.3164063	0.0668125
15149.08277	-0.3164063	0.07125
15149.08327	-0.3164063	0.0770625
15149.08377	-0.3164063	0.0751875
15149.08427	-0.3164063	0.068
15149.08477	-0.3164063	0.0538125
15149.08527	-0.3164063	0.0345
15149.08577	-0.3164063	0.0154375
15149.08627	-0.3164063	-0.001125
15149.08677	-0.5519531	-0.0211875
15149.08727	-0.5519531	-0.040375
15149.08777	-0.5519531	-0.045125
15149.08827	-0.5519531	-0.041625
15149.08877	-0.5519531	-0.034125
15149.08927	-0.5519531	-0.021125
15149.08977	-0.5519531	-0.0165625
15149.09027	-0.5519531	-0.0150625
15149.09077	-0.5519531	-0.0145
15149.09127	-0.5519531	-0.020375
15149.09177	-0.7382813	-0.0264375
15149.09227	-0.7382813	-0.031375
15149.09277	-0.7382813	-0.036
15149.09327	-0.7382813	-0.0409375
15149.09377	-0.7382813	-0.0438125
15149.09427	-0.7382813	-0.03975
15149.09477	-0.7382813	-0.0341875
15149.09527	-0.7382813	-0.0246875
15149.09577	-0.7382813	-0.01825
15149.09627	-0.7382813	-0.0179375
15149.09677	-0.4007813	-0.0191875
15149.09727	-0.4007813	-0.024625
15149.09777	-0.4007813	-0.0313125
15149.09827	-0.4007813	-0.02975
15149.09877	-0.4007813	-0.0378125
15149.09927	-0.4007813	-0.0419375
15149.09977	-0.4007813	-0.04
15149.10027	-0.4007813	-0.037375
15149.10077	-0.4007813	-0.0304375
15149.10127	-0.4007813	-0.0235
15149.10177	-0.3726563	-0.019125
15149.10227	-0.3726563	-0.0126875
15149.10277	-0.3726563	-0.00675
15149.10327	-0.3726563	-0.001875
15149.10377	-0.3726563	-0.00125
15149.10427	-0.3726563	0.002875
15149.10477	-0.3726563	0.0056875
15149.10527	-0.3726563	0.0126875
15149.10577	-0.3726563	0.0324375
15149.10627	-0.3726563	0.0494375
15149.10677	-0.6855469	0.062125
15149.10727	-0.6855469	0.0735
15149.10777	-0.6855469	0.0726875
15149.10827	-0.6855469	0.0711875
15149.10877	-0.6855469	0.0763125
15149.10927	-0.6855469	0.073
15149.10977	-0.6855469	0.056375
15149.11027	-0.6855469	0.0308125
15149.11077	-0.6855469	0.008875
15149.11127	-0.6855469	6.25e-05
15149.11177	-0.4464844	-0.0005
15149.11227	-0.4464844	-0.0044375
15149.11277	-0.4464844	-0.017875
15149.11327	-0.4464844	-0.02825
15149.11377	-0.4464844	-0.0301875
15149.11427	-0.4464844	-0.029
15149.11477	-0.4464844	-0.0160625
15149.11527	-0.4464844	-0.0063125
15149.11577	-0.4464844	0.0015
15149.11627	-0.4464844	0.0195
15149.11677	-0.2425781	0.0344375
15149.11727	-0.2425781	0.0331875
15149.11777	-0.2425781	0.02725
15149.11827	-0.2425781	0.021875
15149.11877	-0.2425781	0.0196875
15149.11927	-0.2425781	0.0199375
15149.11977	-0.2425781	0.0159375
15149.12027	-0.2425781	0.00425
15149.12077	-0.2425781	-0.0025
15149.12127	-0.2425781	-0.007875
15149.12177	-0.5414063	-0.017
15149.12227	-0.5414063	-0.0208125
15149.12277	-0.5414063	-0.0206875
15149.12327	-0.5414063	-0.0238125
15149.12377	-0.5414063	-0.0164375
15149.12427	-0.5414063	-0.0105
15149.12477	-0.5414063	-0.0108125
15149.12527	-0.5414063	-0.007125
15149.12577	-0.5414063	-0.0030625
15149.12627	-0.5414063	0.0024375
15149.12677	-0.4816406	0.009125
15149.12727	-0.4816406	0.0110625
15149.12777	-0.4816406	0.008125
15149.12827	-0.4816406	0.0023125
15149.12877	-0.4816406	0.0005625
15149.12927	-0.4816406	-0.00425
15149.12977	-0.4816406	-0.004
15149.13027	-0.4816406	0.000375
15149.13077	-0.4816406	0.0041875
15149.13127	-0.4816406	0.00925
15149.13177	-0.1757813	0.0095
15149.13227	-0.1757813	-0.003125
15149.13277	-0.1757813	-0.0104375
15149.13327	-0.1757813	-0.01475
15149.13377	-0.1757813	-0.0195
15149.13427	-0.1757813	-0.0185
15149.13477	-0.1757813	-0.0179375
15149.13527	-0.1757813	-0.0181875
15149.13577	-0.1757813	-0.0169375
15149.13627	-0.1757813	-0.0138125
15149.13677	-0.3726563	-0.0135625
15149.13727	-0.3726563	-0.0125625
15149.13777	-0.3726563	0.00275
15149.13827	-0.3726563	0.0153125
15149.13877	-0.3726563	0.021125
15149.13927	-0.3726563	0.025125
15149.13977	-0.3726563	0.02275
15149.14027	-0.3726563	0.019125
15149.14077	-0.3726563	0.011875
15149.14127	-0.3726563	0.0023125
15149.14177	-0.4921875	-0.00275
15149.14227	-0.4921875	-0.00025
15149.14277	-0.4921875	0.0078125
15149.14327	-0.4921875	0.012125
15149.14377	-0.4921875	0.007
15149.14427	-0.4921875	0.001625
15149.14477	-0.4921875	0.00175
15149.14527	-0.4921875	0.010375
15149.14577	-0.4921875	0.0123125
15149.14627	-0.4921875	0.0081875
15149.14677	-0.2425781	0.0086875
15149.14727	-0.2425781	0.01275
15149.14777	-0.2425781	0.0195
15149.14827	-0.2425781	0.0274375
15149.14877	-0.2425781	0.018625
15149.14927	-0.2425781	0.0056875
15149.14977	-0.2425781	0.0025625
15149.15027	-0.2425781	-0.0019375
15149.15077	-0.2425781	-0.0075625
15149.15127	-0.2425781	-0.00975
15149.15177	-0.28125	-0.0068125
15149.15227	-0.28125	0.0003125
15149.15277	-0.28125	0.0109375
15149.15327	-0.28125	0.0208125
15149.15377	-0.28125	0.021375
15149.15427	-0.28125	0.0310625
15149.15477	-0.28125	0.0445625
15149.15527	-0.28125	0.05575
